#Digilent WaveForms Oscilloscope Acquisition
#Device Name: Discovery2
#Serial Number: SN:210321B9C1E9
#Date Time: 2026-06-12 10:53:10.548
#Sample rate: 1600Hz
#Samples: 8000
#Trigger: Source: Channel 1 Type: Edge Condition: Rising Level: 0 V Hyst.: Auto HoldOff: 0 s
#Channel 1: Range: 200 mV/div Offset: 0 V Sample Mode: Average
#Wavegen Channel 1: Running
#Mode: Custom
#Type: EKG (2).csv
#Frequency: 1 Hz
#Period: 1 s
#Amplitude: 5 mV
#Offset: 0 V
#Phase: 0 °

Time (s),Channel 1 (V)
-2.5,-0.03595463110877967
-2.499375,-0.03932054302336749
-2.49875,-0.03864736064044947
-2.498125,-0.03763758706607358
-2.4975,-0.03662781349169723
-2.496875,-0.0373009958746145
-2.49625,-0.03797417825753237
-2.495625,-0.03797417825753237
-2.495,-0.03797417825753237
-2.494375,-0.03898395183190947
-2.49375,-0.04066690778920262
-2.493125,-0.04100349898066141
-2.4925,-0.04134009017212004
-2.491875,-0.04167668136357928
-2.49125,-0.04234986374649653
-2.490625,-0.0430230461294141
-2.49,-0.04335963732087273
-2.489375,-0.04403281970379045
-2.48875,-0.04335963732087288
-2.488125,-0.03932054302336749
-2.4875,-0.03898395183190886
-2.486875,-0.03932054302336749
-2.48625,-0.03595463110877967
-2.485625,-0.03292531038565201
-2.485,-0.03191553681127429
-2.484375,-0.03494485753440332
-2.48375,-0.03662781349169723
-2.483125,-0.03730099587461511
-2.4825,-0.03797417825753237
-2.481875,-0.03864736064044993
-2.48125,-0.03898395183190856
-2.480625,-0.03864736064044993
-2.48,-0.03831076944899114
-2.479375,-0.03763758706607358
-2.47875,-0.03561803991731982
-2.478125,-0.03326190157710941
-2.4775,-0.03326190157710941
-2.476875,-0.03460826634294393
-2.47625,-0.03494485753440332
-2.475625,-0.03494485753440332
-2.475,-0.03561803991732089
-2.474375,-0.03662781349169678
-2.47375,-0.03696440468315602
-2.473125,-0.03696440468315602
-2.4725,-0.03763758706607358
-2.471875,-0.03629122230023661
-2.47125,-0.03225212800273306
-2.470625,-0.02989598966252159
-2.47,-0.03090576323689748
-2.469375,-0.03561803991732089
-2.46875,-0.03561803991732089
-2.468125,-0.03326190157710941
-2.4675,-0.03157894561981489
-2.466875,-0.03023258085398037
-2.46625,-0.02888621608814524
-2.465625,-0.02821303370522799
-2.465,-0.02821303370522768
-2.464375,-0.0315789456198155
-2.46375,-0.03393508396002698
-2.463125,-0.03561803991731982
-2.4625,-0.03326190157710941
-2.461875,-0.03258871919419185
-2.46125,-0.03393508396002637
-2.460625,-0.03528144872586241
-2.46,-0.03595463110877967
-2.459375,-0.03629122230023845
-2.45875,-0.03662781349169708
-2.458125,-0.03595463110877967
-2.4575,-0.03629122230023845
-2.456875,-0.03662781349169723
-2.45625,-0.03561803991732058
-2.455625,-0.03494485753440332
-2.455,-0.03494485753440332
-2.454375,-0.03561803991732058
-2.45375,-0.03696440468315602
-2.453125,-0.03763758706607358
-2.4525,-0.03932054302336749
-2.451875,-0.04033031659774353
-2.45125,-0.03965713421482628
-2.450625,-0.03595463110877967
-2.45,-0.03225212800273475
-2.449375,-0.03090576323689793
-2.44875,-0.03124235442835672
-2.448125,-0.02955939847106281
-2.4475,-0.02854962489668646
-2.446875,-0.02854962489668646
-2.44625,-0.02888621608814524
-2.445625,-0.0295593984710625
-2.445,-0.02922280727960372
-2.444375,-0.02854962489668646
-2.44375,-0.03056917204543915
-2.443125,-0.03393508396002545
-2.4425,-0.03595463110877967
-2.441875,-0.03763758706607358
-2.44125,-0.03898395183190871
-2.440625,-0.03864736064044993
-2.44,-0.03864736064044993
-2.439375,-0.03831076944899114
-2.43875,-0.03831076944899114
-2.438125,-0.03629122230023845
-2.4375,-0.03494485753440332
-2.436875,-0.03561803991732089
-2.43625,-0.03595463110877952
-2.435625,-0.03561803991732089
-2.435,-0.03595463110877967
-2.434375,-0.03595463110877967
-2.43375,-0.03696440468315602
-2.433125,-0.03831076944899114
-2.4325,-0.04033031659774384
-2.431875,-0.04167668136357928
-2.43125,-0.04234986374649653
-2.430625,-0.03999372540628506
-2.43,-0.03629122230024014
-2.429375,-0.03730099587461465
-2.42875,-0.03696440468315602
-2.428125,-0.03427167515148576
-2.4275,-0.03191553681127535
-2.426875,-0.02922280727960402
-2.42625,-0.02753985132231011
-2.425625,-0.02686666893939255
-2.425,-0.02653007774793392
-2.424375,-0.02686666893939255
-2.42375,-0.02854962489668646
-2.423125,-0.03191553681127275
-2.4225,-0.03326190157710941
-2.421875,-0.03393508396002698
-2.42125,-0.03393508396002698
-2.420625,-0.03494485753440378
-2.42,-0.03595463110877967
-2.419375,-0.03595463110877967
-2.41875,-0.03528144872586241
-2.418125,-0.0335984927685682
-2.4175,-0.03258871919419185
-2.416875,-0.0335984927685682
-2.41625,-0.03393508396002698
-2.415625,-0.03393508396002698
-2.415,-0.03393508396002698
-2.414375,-0.03460826634294423
-2.41375,-0.03494485753440332
-2.413125,-0.03494485753440332
-2.4125,-0.03595463110877967
-2.411875,-0.03763758706607282
-2.41125,-0.03932054302336749
-2.410625,-0.04066690778920262
-2.41,-0.04100349898066141
-2.409375,-0.04201327255503669
-2.40875,-0.03965713421482628
-2.408125,-0.03494485753440332
-2.4075,-0.03225212800273429
-2.406875,-0.03258871919419185
-2.40625,-0.03393508396002698
-2.405625,-0.0315789456198155
-2.405,-0.02989598966252282
-2.404375,-0.03258871919419185
-2.40375,-0.03494485753440332
-2.403125,-0.03662781349169647
-2.4025,-0.03595463110877967
-2.401875,-0.03561803991732089
-2.40125,-0.03629122230023845
-2.400625,-0.03696440468315617
-2.4,-0.0373009958746148
-2.399375,-0.0373009958746148
-2.39875,-0.03595463110878028
-2.398125,-0.03460826634294408
-2.3975,-0.0335984927685682
-2.396875,-0.03326190157710941
-2.39625,-0.03326190157710941
-2.395625,-0.0335984927685682
-2.395,-0.0335984927685682
-2.394375,-0.03460826634294454
-2.39375,-0.03595463110877983
-2.393125,-0.03629122230023845
-2.3925,-0.0373009958746148
-2.391875,-0.03831076944899069
-2.39125,-0.03898395183190871
-2.390625,-0.03864736064044993
-2.39,-0.03696440468315602
-2.389375,-0.03427167515148453
-2.38875,-0.0315789456198155
-2.388125,-0.02821303370522768
-2.3875,-0.02653007774793453
-2.386875,-0.02619348655647499
-2.38625,-0.02619348655647499
-2.385625,-0.0258568953650162
-2.385,-0.02552030417355742
-2.384375,-0.02552030417355742
-2.38375,-0.0258568953650162
-2.383125,-0.02720326013085072
-2.3825,-0.03090576323689916
-2.381875,-0.0335984927685682
-2.38125,-0.03561803991732089
-2.380625,-0.03662781349169678
-2.38,-0.03797417825753237
-2.379375,-0.03898395183190871
-2.37875,-0.03831076944899114
-2.378125,-0.03662781349169693
-2.3775,-0.03595463110877967
-2.376875,-0.03629122230023845
-2.37625,-0.03629122230023845
-2.375625,-0.03561803991732089
-2.375,-0.03561803991732089
-2.374375,-0.03595463110877967
-2.37375,-0.03730099587461526
-2.373125,-0.03831076944899114
-2.3725,-0.03965713421482628
-2.371875,-0.03932054302336765
-2.37125,-0.03629122230023845
-2.370625,-0.03326190157710941
-2.37,-0.03191553681127429
-2.369375,-0.03561803991732104
-2.36875,-0.03595463110877967
-2.368125,-0.03225212800273306
-2.3675,-0.02955939847106403
-2.366875,-0.0275398513223095
-2.36625,-0.02619348655647499
-2.365625,-0.02619348655647499
-2.365,-0.02720326013085087
-2.364375,-0.03023258085398037
-2.36375,-0.03292531038565063
-2.363125,-0.03427167515148576
-2.3625,-0.03494485753440348
-2.361875,-0.03528144872586211
-2.36125,-0.03561803991732089
-2.360625,-0.03629122230023814
-2.36,-0.03662781349169723
-2.359375,-0.03662781349169723
-2.35875,-0.03528144872586211
-2.358125,-0.03393508396002683
-2.3575,-0.0335984927685682
-2.356875,-0.03393508396002698
-2.35625,-0.03393508396002698
-2.355625,-0.0335984927685682
-2.355,-0.03326190157710941
-2.354375,-0.03393508396002698
-2.35375,-0.03460826634294454
-2.353125,-0.03460826634294454
-2.3525,-0.03561803991732089
-2.351875,-0.03629122230023814
-2.35125,-0.03730099587461526
-2.350625,-0.03831076944899114
-2.35,-0.03898395183190871
-2.349375,-0.0399937254062846
-2.34875,-0.03797417825753237
-2.348125,-0.0335984927685682
-2.3475,-0.0315789456198155
-2.346875,-0.03056917204543885
-2.34625,-0.02989598966252159
-2.345625,-0.02955939847106281
-2.345,-0.03090576323689732
-2.344375,-0.03427167515148576
-2.34375,-0.03292531038565063
-2.343125,-0.03056917204543915
-2.3425,-0.03157894561981642
-2.341875,-0.0335984927685682
-2.34125,-0.03494485753440332
-2.340625,-0.03561803991732058
-2.34,-0.03561803991732089
-2.339375,-0.03528144872586211
-2.33875,-0.03427167515148576
-2.338125,-0.03326190157710956
-2.3375,-0.0335984927685682
-2.336875,-0.03460826634294454
-2.33625,-0.03561803991732043
-2.335625,-0.03595463110877998
-2.335,-0.03662781349169723
-2.334375,-0.03797417825753237
-2.33375,-0.03864736064044962
-2.333125,-0.03864736064044993
-2.3325,-0.03932054302336749
-2.331875,-0.04033031659774384
-2.33125,-0.04167668136357928
-2.330625,-0.04234986374649653
-2.33,-0.04201327255503776
-2.329375,-0.04201327255503776
-2.32875,-0.03898395183190871
-2.328125,-0.03427167515148576
-2.3275,-0.03494485753440332
-2.326875,-0.03359849276856681
-2.32625,-0.03056917204543915
-2.325625,-0.02888621608814524
-2.325,-0.02753985132231072
-2.324375,-0.02720326013085133
-2.32375,-0.03056917204543915
-2.323125,-0.0335984927685682
-2.3225,-0.03528144872586256
-2.321875,-0.03629122230023845
-2.32125,-0.03696440468315602
-2.320625,-0.03662781349169739
-2.32,-0.03696440468315602
-2.319375,-0.03696440468315602
-2.31875,-0.03629122230023845
-2.318125,-0.03528144872586256
-2.3175,-0.03561803991732089
-2.316875,-0.03662781349169723
-2.31625,-0.03629122230023845
-2.315625,-0.03629122230023845
-2.315,-0.03629122230023845
-2.314375,-0.03696440468315602
-2.31375,-0.03763758706607328
-2.313125,-0.03763758706607358
-2.3125,-0.03898395183190871
-2.311875,-0.0373009958746148
-2.31125,-0.03359849276856728
-2.310625,-0.0315789456198155
-2.31,-0.03090576323689793
-2.309375,-0.03427167515148422
-2.30875,-0.03528144872586211
-2.308125,-0.03258871919419185
-2.3075,-0.02989598966252159
-2.306875,-0.02854962489668646
-2.30625,-0.02854962489668646
-2.305625,-0.02854962489668646
-2.305,-0.02821303370522783
-2.304375,-0.02686666893939209
-2.30375,-0.0258568953650162
-2.303125,-0.02653007774793376
-2.3025,-0.02888621608814417
-2.301875,-0.03124235442835672
-2.30125,-0.0335984927685682
-2.300625,-0.03561803991732089
-2.3,-0.03629122230023845
-2.299375,-0.03629122230023845
-2.29875,-0.03629122230023845
-2.298125,-0.03494485753440393
-2.2975,-0.03528144872586211
-2.296875,-0.03629122230023845
-2.29625,-0.03629122230023845
-2.295625,-0.03561803991732089
-2.295,-0.03561803991732089
-2.294375,-0.03696440468315602
-2.29375,-0.03763758706607328
-2.293125,-0.0373009958746148
-2.2925,-0.03831076944899114
-2.291875,-0.03898395183190871
-2.29125,-0.04033031659774246
-2.290625,-0.0373009958746148
-2.29,-0.03393508396002698
-2.289375,-0.03561803991732013
-2.28875,-0.03561803991731936
-2.288125,-0.03225212800273306
-2.2875,-0.02955939847106281
-2.286875,-0.02821303370522829
-2.28625,-0.02854962489668646
-2.285625,-0.02821303370522768
-2.285,-0.02753985132231011
-2.284375,-0.02686666893939347
-2.28375,-0.02888621608814524
-2.283125,-0.03258871919419185
-2.2825,-0.03494485753440225
-2.281875,-0.03629122230023845
-2.28125,-0.03629122230023845
-2.280625,-0.03696440468315602
-2.28,-0.03696440468315632
-2.279375,-0.03763758706607358
-2.27875,-0.03696440468315602
-2.278125,-0.0356180399173215
-2.2775,-0.03561803991732089
-2.276875,-0.03561803991732089
-2.27625,-0.03561803991732089
-2.275625,-0.03561803991732089
-2.275,-0.03561803991732089
-2.274375,-0.03662781349169723
-2.27375,-0.03763758706607313
-2.273125,-0.03898395183190932
-2.2725,-0.04033031659774384
-2.271875,-0.04033031659774384
-2.27125,-0.03999372540628521
-2.270625,-0.03662781349169723
-2.27,-0.03528144872586211
-2.269375,-0.03831076944899114
-2.26875,-0.03730099587461311
-2.268125,-0.0335984927685682
-2.2675,-0.03090576323689793
-2.266875,-0.02922280727960479
-2.26625,-0.02821303370522768
-2.265625,-0.02720326013085133
-2.265,-0.02686666893939255
-2.264375,-0.02686666893939408
-2.26375,-0.03023258085398037
-2.263125,-0.0335984927685682
-2.2625,-0.03561803991731997
-2.261875,-0.0373009958746148
-2.26125,-0.03797417825753237
-2.260625,-0.03864736064044993
-2.26,-0.03864736064044993
-2.259375,-0.03864736064044993
-2.25875,-0.0373009958746148
-2.258125,-0.03561803991732165
-2.2575,-0.03528144872586241
-2.256875,-0.03595463110877967
-2.25625,-0.03561803991732089
-2.255625,-0.03629122230023814
-2.255,-0.03629122230023845
-2.254375,-0.03763758706607358
-2.25375,-0.03864736064044993
-2.253125,-0.03932054302336795
-2.2525,-0.04033031659774384
-2.251875,-0.04100349898066141
-2.25125,-0.0420132725550373
-2.250625,-0.04268645493795532
-2.25,-0.0430230461294141
-2.249375,-0.0430230461294141
-2.24875,-0.04100349898065896
-2.248125,-0.03561803991732089
-2.2475,-0.03225212800273306
-2.246875,-0.03023258085398129
-2.24625,-0.02821303370522768
-2.245625,-0.02753985132231011
-2.245,-0.02720326013085133
-2.244375,-0.02653007774793468
-2.24375,-0.02854962489668646
-2.243125,-0.03191553681127429
-2.2425,-0.03393508396002606
-2.241875,-0.03460826634294469
-2.24125,-0.03494485753440332
-2.240625,-0.03494485753440332
-2.24,-0.03528144872586195
-2.239375,-0.03595463110877967
-2.23875,-0.03528144872586211
-2.238125,-0.03460826634294454
-2.2375,-0.03561803991732074
-2.236875,-0.03528144872586211
-2.23625,-0.03427167515148576
-2.235625,-0.03494485753440302
-2.235,-0.03528144872586211
-2.234375,-0.03528144872586211
-2.23375,-0.03561803991732089
-2.233125,-0.03730099587461556
-2.2325,-0.03898395183190871
-2.231875,-0.0373009958746148
-2.23125,-0.03427167515148713
-2.230625,-0.03124235442835672
-2.23,-0.03191553681127429
-2.229375,-0.03494485753440332
-2.22875,-0.03393508396002606
-2.228125,-0.03191553681127429
-2.2275,-0.0315789456198155
-2.226875,-0.03023258085398099
-2.22625,-0.02888621608814494
-2.225625,-0.02821303370522768
-2.225,-0.02753985132231011
-2.224375,-0.02753985132231011
-2.22375,-0.02989598966252159
-2.223125,-0.03292531038565063
-2.2225,-0.03528144872586211
-2.221875,-0.03662781349169769
-2.22125,-0.03763758706607358
-2.220625,-0.03831076944899114
-2.22,-0.03831076944899114
-2.219375,-0.03831076944899114
-2.21875,-0.03662781349169723
-2.218125,-0.03528144872586211
-2.2175,-0.03528144872586241
-2.216875,-0.03595463110877967
-2.21625,-0.03629122230023845
-2.215625,-0.03595463110877983
-2.215,-0.03629122230023845
-2.214375,-0.0373009958746148
-2.21375,-0.03763758706607358
-2.213125,-0.03797417825753283
-2.2125,-0.03898395183190871
-2.211875,-0.03999372540628506
-2.21125,-0.04033031659774369
-2.210625,-0.03696440468315448
-2.21,-0.0335984927685682
-2.209375,-0.0315789456198155
-2.20875,-0.02989598966252236
-2.208125,-0.02821303370522768
-2.2075,-0.02720326013085133
-2.206875,-0.02653007774793376
-2.20625,-0.02653007774793376
-2.205625,-0.02653007774793376
-2.205,-0.02922280727960402
-2.204375,-0.03326190157710757
-2.20375,-0.03662781349169723
-2.203125,-0.03864736064044993
-2.2025,-0.03932054302336749
-2.201875,-0.03932054302336719
-2.20125,-0.03864736064044993
-2.200625,-0.03898395183190871
-2.2,-0.03864736064045008
-2.199375,-0.03763758706607358
-2.19875,-0.03629122230023845
-2.198125,-0.03460826634294454
-2.1975,-0.03427167515148591
-2.196875,-0.03460826634294454
-2.19625,-0.03393508396002698
-2.195625,-0.03359849276856835
-2.195,-0.03393508396002744
-2.194375,-0.03494485753440332
-2.19375,-0.03561803991732089
-2.193125,-0.03629122230023814
-2.1925,-0.0373009958746148
-2.191875,-0.03797417825753237
-2.19125,-0.03932054302336749
-2.190625,-0.03965713421482643
-2.19,-0.03999372540628506
-2.189375,-0.04066690778920262
-2.18875,-0.03797417825753359
-2.188125,-0.03292531038565063
-2.1875,-0.03090576323689793
-2.186875,-0.02955939847106281
-2.18625,-0.028549624896686
-2.185625,-0.02753985132231011
-2.185,-0.02686666893939255
-2.184375,-0.02585689536501666
-2.18375,-0.0278764425137689
-2.183125,-0.03191553681127429
-2.1825,-0.03393508396002698
-2.181875,-0.03494485753440348
-2.18125,-0.03528144872586211
-2.180625,-0.03595463110877967
-2.18,-0.0362912223002383
-2.179375,-0.03561803991732058
-2.17875,-0.03494485753440332
-2.178125,-0.03393508396002698
-2.1775,-0.0342716751514856
-2.176875,-0.03460826634294454
-2.17625,-0.03427167515148576
-2.175625,-0.03629122230023845
-2.175,-0.03965713421482643
-2.174375,-0.03999372540628506
-2.17375,-0.03864736064044993
-2.173125,-0.03864736064044993
-2.1725,-0.03898395183190871
-2.171875,-0.0373009958746148
-2.17125,-0.03460826634294454
-2.170625,-0.03561803991732181
-2.17,-0.03763758706607358
-2.169375,-0.03932054302336749
-2.16875,-0.03662781349169845
-2.168125,-0.03225212800273306
-2.1675,-0.02955939847106281
-2.166875,-0.0278764425137689
-2.16625,-0.02619348655647453
-2.165625,-0.02518371298209864
-2.165,-0.02518371298209864
-2.164375,-0.02787644251376767
-2.16375,-0.03056917204543976
-2.163125,-0.03191553681127429
-2.1625,-0.03292531038565063
-2.161875,-0.03359849276856789
-2.16125,-0.03393508396002698
-2.160625,-0.03393508396002698
-2.16,-0.0335984927685682
-2.159375,-0.03326190157710895
-2.15875,-0.03225212800273306
-2.158125,-0.03056917204543915
-2.1575,-0.03023258085398053
-2.156875,-0.03090576323689793
-2.15625,-0.0315789456198155
-2.155625,-0.03225212800273306
-2.155,-0.03326190157710972
-2.154375,-0.03393508396002698
-2.15375,-0.03427167515148576
-2.153125,-0.03494485753440302
-2.1525,-0.03595463110877967
-2.151875,-0.03629122230023845
-2.15125,-0.03662781349169723
-2.150625,-0.03662781349169739
-2.15,-0.03696440468315602
-2.149375,-0.0373009958746148
-2.14875,-0.03460826634294577
-2.148125,-0.03124235442835534
-2.1475,-0.02821303370522768
-2.146875,-0.02653007774793376
-2.14625,-0.02451053059918199
-2.145625,-0.02350075702480472
-2.145,-0.02350075702480472
-2.144375,-0.02686666893939255
-2.14375,-0.03056917204544007
-2.143125,-0.03258871919419185
-2.1425,-0.03326190157710941
-2.141875,-0.03393508396002667
-2.14125,-0.03393508396002698
-2.140625,-0.03427167515148576
-2.14,-0.03427167515148576
-2.139375,-0.03427167515148515
-2.13875,-0.03292531038565063
-2.138125,-0.0315789456198155
-2.1375,-0.03191553681127413
-2.136875,-0.03191553681127429
-2.13625,-0.03225212800273306
-2.135625,-0.03258871919419185
-2.135,-0.03326190157710972
-2.134375,-0.03393508396002698
-2.13375,-0.03460826634294454
-2.133125,-0.03595463110877906
-2.1325,-0.03696440468315632
-2.131875,-0.03763758706607358
-2.13125,-0.03831076944899114
-2.130625,-0.03561803991732211
-2.13,-0.03393508396002698
-2.129375,-0.03629122230023845
-2.12875,-0.03494485753440332
-2.128125,-0.0319155368112752
-2.1275,-0.03393508396002698
-2.126875,-0.03393508396002698
-2.12625,-0.03124235442835794
-2.125625,-0.02821303370522768
-2.125,-0.02821303370522768
-2.124375,-0.03056917204543915
-2.12375,-0.03225212800273337
-2.123125,-0.03292531038565063
-2.1225,-0.03292531038565063
-2.121875,-0.03292531038565063
-2.12125,-0.03258871919419185
-2.120625,-0.03292531038565063
-2.12,-0.03292531038565063
-2.119375,-0.03359849276856759
-2.11875,-0.03225212800273306
-2.118125,-0.03090576323689793
-2.1175,-0.0315789456198152
-2.116875,-0.03258871919419185
-2.11625,-0.03258871919419185
-2.115625,-0.03258871919419185
-2.115,-0.03292531038565048
-2.114375,-0.0335984927685682
-2.11375,-0.03494485753440332
-2.113125,-0.03662781349169723
-2.1125,-0.03763758706607267
-2.111875,-0.03561803991732089
-2.11125,-0.03191553681127429
-2.110625,-0.02922280727960525
-2.11,-0.02653007774793376
-2.109375,-0.0221543922589696
-2.10875,-0.01845188915292299
-2.108125,-0.01542256842979333
-2.1075,-0.01407620366395882
-2.106875,-0.01306643008958247
-2.10625,-0.0110468829408307
-2.105625,-0.006334606260406822
-2.105,-0.001622329579983869
-2.104375,0.0007338087602276073
-2.10375,0.002753355908980914
-2.103125,0.004099720674815431
-2.1025,0.005109494249191778
-2.101875,0.005782676632109037
-2.10125,0.006119267823568125
-2.100625,0.006119267823568125
-2.1,0.006119267823568125
-2.099375,0.006792450206485384
-2.09875,0.008475406163779602
-2.098125,0.009821770929614731
-2.0975,0.009821770929614731
-2.096875,0.01150472688691033
-2.09625,0.01520722999295525
-2.095625,0.01823655071608429
-2.095,0.01924632429046018
-2.094375,0.01924632429046064
-2.09375,0.0199195066733782
-2.093125,0.01958291548191942
-2.0925,0.02193905382213197
-2.091875,0.02429519216234238
-2.09125,0.02665133050255385
-2.090625,0.03170019837443329
-2.09,0.03607588386339976
-2.089375,0.03775883982069367
-2.08875,0.03944179577798759
-2.088125,0.04112475173528195
-2.0875,0.04213452530965784
-2.086875,0.04314429888403419
-2.08625,0.04381748126695145
-2.085625,0.04819316675591714
-2.085,0.05088589628758618
-2.084375,0.04953953152175106
-2.08375,0.0488663491388338
-2.083125,0.04852975794737471
-2.0825,0.04886634913883349
-2.081875,0.04920294033029227
-2.08125,0.04920294033029197
-2.080625,0.04852975794737471
-2.08,0.04819316675591592
-2.079375,0.04852975794737455
-2.07875,0.0505493050961274
-2.078125,0.05189566986196253
-2.0775,0.05155907867050375
-2.076875,0.0515590786705039
-2.07625,0.05189566986196253
-2.075625,0.04819316675591592
-2.075,0.04381748126695375
-2.074375,0.04011497816090515
-2.07375,0.03775883982069367
-2.073125,0.03506611028902341
-2.0725,0.03304656314027072
-2.071875,0.03304656314027072
-2.07125,0.03607588386339976
-2.070625,0.0354027014804825
-2.07,0.03270997194881102
-2.069375,0.03069042480005924
-2.06875,0.02968065122568289
-2.068125,0.02968065122568289
-2.0675,0.02900746884276532
-2.066875,0.02867087765130655
-2.06625,0.02934406003422411
-2.065625,0.03001724241714106
-2.065,0.02867087765130655
-2.064375,0.0256415569281775
-2.06375,0.02429519216234299
-2.063125,0.02328541858796603
-2.0625,0.02227564501358968
-2.061875,0.01924632429046064
-2.06125,0.01487063880149509
-2.060625,0.01184131807836743
-2.06,0.01015836212107351
-2.059375,0.009148588546697627
-2.05875,0.00679245020648569
-2.058125,0.003426538291897866
-2.0575,-0.0002759648141487398
-2.056875,-0.002295511962902046
-2.05625,-0.003641876728736564
-2.055625,-0.004988241494571694
-2.055,-0.00633460626040621
-2.054375,-0.01104688294082993
-2.05375,-0.01138347413228856
-2.053125,-0.01138347413228856
-2.0525,-0.01474938604687485
-2.051875,-0.01542256842979395
-2.05125,-0.01407620366395882
-2.050625,-0.01306643008958247
-2.05,-0.01373961247250034
-2.049375,-0.0144127948554176
-2.04875,-0.01340302128104125
-2.048125,-0.012729838898124
-2.0475,-0.01205665651520612
-2.046875,-0.01340302128104125
-2.04625,-0.01710552438708786
-2.045625,-0.01979825391875889
-2.045,-0.02148120987605203
-2.044375,-0.02249098345042837
-2.04375,-0.02249098345042837
-2.043125,-0.02181780106751081
-2.0425,-0.02181780106751081
-2.041875,-0.02484712179063985
-2.04125,-0.02888621608814631
-2.040625,-0.03124235442835672
-2.04,-0.03258871919419185
-2.039375,-0.03393508396002637
-2.03875,-0.03359849276856804
-2.038125,-0.03326190157710941
-2.0375,-0.0335984927685682
-2.036875,-0.0335984927685682
-2.03625,-0.0335984927685682
-2.035625,-0.03393508396002698
-2.035,-0.03427167515148576
-2.034375,-0.03595463110878013
-2.03375,-0.03696440468315602
-2.033125,-0.03831076944899114
-2.0325,-0.03965713421482567
-2.031875,-0.04100349898066141
-2.03125,-0.04201327255503776
-2.030625,-0.04167668136357897
-2.03,-0.04268645493795577
-2.029375,-0.04369622851233167
-2.02875,-0.04167668136357897
-2.028125,-0.03696440468315816
-2.0275,-0.03326190157710941
-2.026875,-0.03090576323689793
-2.02625,-0.03023258085398037
-2.025625,-0.02888621608814509
-2.025,-0.02854962489668646
-2.024375,-0.03124235442835672
-2.02375,-0.03393508396002576
-2.023125,-0.03595463110878013
-2.0225,-0.03696440468315602
-2.021875,-0.03797417825753237
-2.02125,-0.03763758706607374
-2.020625,-0.03662781349169723
-2.02,-0.03561803991732089
-2.019375,-0.03494485753440332
-2.01875,-0.03326190157710911
-2.018125,-0.03258871919419185
-2.0175,-0.0335984927685682
-2.016875,-0.0335984927685682
-2.01625,-0.03326190157710941
-2.015625,-0.03326190157710941
-2.015,-0.03326190157710941
-2.014375,-0.03427167515148637
-2.01375,-0.03561803991732089
-2.013125,-0.03696440468315602
-2.0125,-0.03831076944899053
-2.011875,-0.03999372540628506
-2.01125,-0.03999372540628506
-2.010625,-0.03595463110877967
-2.01,-0.03460826634294576
-2.009375,-0.0373009958746148
-2.00875,-0.03662781349169723
-2.008125,-0.03326190157711095
-2.0075,-0.03359849276856789
-2.006875,-0.03292531038565063
-2.00625,-0.03023258085398037
-2.005625,-0.02888621608814585
-2.005,-0.02854962489668646
-2.004375,-0.02753985132231011
-2.00375,-0.02922280727960402
-2.003125,-0.03157894561981474
-2.0025,-0.02989598966252159
-2.001875,-0.03023258085398037
-2.00125,-0.03191553681127352
-2.000625,-0.0335984927685682
-2,-0.03494485753440332
-1.999375,-0.03494485753440332
-1.99875,-0.03427167515148576
-1.998125,-0.03258871919419185
-1.9975,-0.03225212800273306
-1.996875,-0.03090576323689793
-1.99625,-0.03056917204543915
-1.995625,-0.03056917204543915
-1.995,-0.03191553681127429
-1.994375,-0.03258871919419185
-1.99375,-0.03393508396002698
-1.993125,-0.03561803991732089
-1.9925,-0.03662781349169723
-1.991875,-0.03494485753440332
-1.99125,-0.03124235442835672
-1.990625,-0.0278764425137689
-1.99,-0.02922280727960402
-1.989375,-0.03326190157710941
-1.98875,-0.03292531038565063
-1.988125,-0.03023258085398037
-1.9875,-0.02922280727960402
-1.986875,-0.02854962489668646
-1.98625,-0.0278764425137689
-1.985625,-0.0278764425137689
-1.985,-0.02854962489668646
-1.984375,-0.03191553681127429
-1.98375,-0.03393508396002698
-1.983125,-0.03393508396002698
-1.9825,-0.03023258085398037
-1.981875,-0.02989598966252159
-1.98125,-0.03191553681127429
-1.980625,-0.03326190157710941
-1.98,-0.03393508396002698
-1.979375,-0.03393508396002698
-1.97875,-0.0335984927685682
-1.978125,-0.03292531038565063
-1.9775,-0.03393508396002698
-1.976875,-0.03326190157710941
-1.97625,-0.03292531038565063
-1.975625,-0.03292531038565063
-1.975,-0.0335984927685682
-1.974375,-0.03494485753440332
-1.97375,-0.03561803991732089
-1.973125,-0.03662781349169723
-1.9725,-0.0373009958746148
-1.971875,-0.03797417825753237
-1.97125,-0.03797417825753237
-1.970625,-0.03864736064044993
-1.97,-0.04033031659774384
-1.969375,-0.04100349898066141
-1.96875,-0.03763758706607358
-1.968125,-0.0335984927685682
-1.9675,-0.03056917204543915
-1.966875,-0.02888621608814524
-1.96625,-0.0278764425137689
-1.965625,-0.02686666893939255
-1.965,-0.02720326013085133
-1.964375,-0.02989598966252159
-1.96375,-0.03191553681127429
-1.963125,-0.03292531038565063
-1.9625,-0.03326190157710941
-1.961875,-0.0335984927685682
-1.96125,-0.0335984927685682
-1.960625,-0.03460826634294454
-1.96,-0.03528144872586211
-1.959375,-0.03494485753440332
-1.95875,-0.03326190157710941
-1.958125,-0.03225212800273306
-1.9575,-0.03258871919419185
-1.956875,-0.03292531038565063
-1.95625,-0.03292531038565063
-1.955625,-0.03595463110877967
-1.955,-0.04234986374649653
-1.954375,-0.05278419068171879
-1.95375,-0.06321851761694104
-1.953125,-0.07331625336070452
-1.9525,-0.08038466838133894
-1.951875,-0.08745308340197337
-1.95125,-0.09485808961406658
-1.950625,-0.1002435486774071
-1.95,-0.1029362782090774
-1.949375,-0.1012533222517834
-1.94875,-0.09586786318844294
-1.948125,-0.08846285697634973
-1.9475,-0.08004807718988016
-1.946875,-0.07163329740341061
-1.94625,-0.05884283212797687
-1.945625,-0.04403281970379045
-1.945,-0.0278764425137689
-1.944375,-0.007007788643324388
-1.94375,0.0162170035673316
-1.943125,0.04045156935236393
-1.9425,0.06603249990323139
-1.941875,0.09127683926264007
-1.94125,0.1165211786220487
-1.940625,0.142438700364375
-1.94,0.1683562221067012
-1.939375,0.1956201086148626
-1.93875,0.2252401334632355
-1.938125,0.2531772023543143
-1.9375,0.280104497671017
-1.936875,0.3097245225193898
-1.93625,0.3369884090275512
-1.935625,0.3639157043442538
-1.935,0.3905064084694976
-1.934375,0.4204630245093292
-1.93375,0.4524391876979135
-1.933125,0.4834055773121215
-1.9325,0.5163915140750822
-1.931875,0.5497140420295017
-1.93125,0.5820267964095448
-1.930625,0.6076077269604123
-1.93,0.6288129720223156
-1.929375,0.6490084435098425
-1.92875,0.6665111854656992
-1.928125,0.6789650595496741
-1.9275,0.6877164305276025
-1.926875,0.6907457512507316
-1.92625,0.6907457512507316
-1.925625,0.6873798393361437
-1.925,0.6819943802728032
-1.924375,0.6725698269119573
-1.92375,0.6594427704450647
-1.923125,0.6449693492123372
-1.9225,0.6257836512991866
-1.921875,0.6035686326629068
-1.92125,0.5796706580693334
-1.920625,0.5510604067953369
-1.92,0.5251428850530105
-1.919375,0.5019180928423546
-1.91875,0.4746542063341932
-1.918125,0.4463805462516555
-1.9175,0.4170971125947414
-1.916875,0.3864673141719922
-1.91625,0.3605497924296659
-1.915625,0.3376615914104688
-1.915,0.3147733903912716
-1.914375,0.2895290510318629
-1.91375,0.2642847116724542
-1.913125,0.2376940075472104
-1.9125,0.2097569386561315
-1.911875,0.1838394169138052
-1.91125,0.1606146247031492
-1.910625,0.1360434677266581
-1.91,0.1121454931330846
-1.909375,0.08925729211388737
-1.90875,0.06939841181781922
-1.908125,0.05088589628758618
-1.9075,0.03573929267194097
-1.906875,0.02059268905629577
-1.90625,0.005109494249191778
-1.905625,-0.008354153409159517
-1.905,-0.01979825391875812
-1.904375,-0.03427167515148576
-1.90375,-0.04773532280983706
-1.903125,-0.05884283212797687
-1.9025,-0.06927715906319913
-1.901875,-0.0793748948069626
-1.90125,-0.08913603935926728
-1.900625,-0.09889718391157197
-1.9,-0.1069753725065827
-1.899375,-0.1113510579955469
-1.89875,-0.1130340139528408
-1.898125,-0.1140437875272172
-1.8975,-0.1153901522930523
-1.896875,-0.1180828818247226
-1.89625,-0.1227951585051455
-1.895625,-0.1264976616111921
-1.895,-0.1302001647172387
-1.894375,-0.1332294854403678
-1.89375,-0.1355856237805793
-1.893125,-0.1369319885464144
-1.8925,-0.1349124413976617
-1.891875,-0.1325563030574502
-1.89125,-0.1302001647172387
-1.890625,-0.1254878880368158
-1.89,-0.1211122025478516
-1.889375,-0.1190926553990989
-1.88875,-0.114380378718676
-1.888125,-0.1093315108467942
-1.8875,-0.1059655989322064
-1.886875,-0.1036094605919949
-1.88625,-0.1015899134432422
-1.885625,-0.09721422795427806
-1.885,-0.09351172484823146
-1.884375,-0.09048240412510242
-1.88375,-0.08745308340197337
-1.883125,-0.08543353625322068
-1.8825,-0.08105785076425651
-1.881875,-0.07802853004112748
-1.88125,-0.07836512123258625
-1.880625,-0.07600898289237477
-1.88,-0.07163329740341061
-1.879375,-0.06759420310590522
-1.87875,-0.06389169999985861
-1.878125,-0.06187215285110591
-1.8775,-0.05850624093651809
-1.876875,-0.05514032902193026
-1.87625,-0.05278419068171879
-1.875625,-0.05076464353296609
-1.875,-0.05110123472442488
-1.874375,-0.05143782591588366
-1.87375,-0.04975486995858975
-1.873125,-0.04773532280983706
-1.8725,-0.04605236685254314
-1.871875,-0.04470600208670801
-1.87125,-0.04335963732087288
-1.870625,-0.03999372540628506
-1.87,-0.03696440468315602
-1.869375,-0.03460826634294454
-1.86875,-0.03191553681127429
-1.868125,-0.03023258085398037
-1.8675,-0.02888621608814524
-1.866875,-0.02922280727960402
-1.86625,-0.02989598966252159
-1.865625,-0.02955939847106281
-1.865,-0.02922280727960402
-1.864375,-0.02922280727960402
-1.86375,-0.0315789456198155
-1.863125,-0.03494485753440332
-1.8625,-0.03763758706607358
-1.861875,-0.03831076944899114
-1.86125,-0.03965713421482628
-1.860625,-0.04066690778920262
-1.86,-0.04100349898066141
-1.859375,-0.03999372540628506
-1.85875,-0.03898395183190871
-1.858125,-0.03831076944899114
-1.8575,-0.03864736064044993
-1.856875,-0.03864736064044993
-1.85625,-0.03797417825753237
-1.855625,-0.03763758706607358
-1.855,-0.03898395183190871
-1.854375,-0.04066690778920262
-1.85375,-0.04100349898066141
-1.853125,-0.04167668136357897
-1.8525,-0.04201327255503776
-1.851875,-0.04201327255503776
-1.85125,-0.03797417825753237
-1.850625,-0.03494485753440332
-1.85,-0.03427167515148576
-1.849375,-0.0335984927685682
-1.84875,-0.0315789456198155
-1.848125,-0.03056917204543915
-1.8475,-0.02989598966252159
-1.846875,-0.03056917204543915
-1.84625,-0.03090576323689793
-1.845625,-0.03124235442835672
-1.845,-0.03056917204543915
-1.844375,-0.02955939847106281
-1.84375,-0.03225212800273306
-1.843125,-0.03561803991732089
-1.8425,-0.03696440468315602
-1.841875,-0.03898395183190871
-1.84125,-0.03999372540628506
-1.840625,-0.03965713421482628
-1.84,-0.03999372540628506
-1.839375,-0.03898395183190871
-1.83875,-0.03662781349169723
-1.838125,-0.03494485753440332
-1.8375,-0.03460826634294454
-1.836875,-0.03494485753440332
-1.83625,-0.03494485753440332
-1.835625,-0.03528144872586211
-1.835,-0.03561803991732089
-1.834375,-0.03595463110877967
-1.83375,-0.03662781349169723
-1.833125,-0.03763758706607358
-1.8325,-0.03898395183190871
-1.831875,-0.04100349898066141
-1.83125,-0.04234986374649653
-1.830625,-0.04335963732087288
-1.83,-0.04504259327816679
-1.829375,-0.04470600208670801
-1.82875,-0.04100349898066141
-1.828125,-0.03629122230023845
-1.8275,-0.03696440468315602
-1.826875,-0.03662781349169723
-1.82625,-0.03393508396002698
-1.825625,-0.03225212800273306
-1.825,-0.03258871919419185
-1.824375,-0.03460826634294454
-1.82375,-0.03595463110877967
-1.823125,-0.03662781349169723
-1.8225,-0.0373009958746148
-1.821875,-0.03763758706607358
-1.82125,-0.0373009958746148
-1.820625,-0.03662781349169723
-1.82,-0.03629122230023845
-1.819375,-0.03393508396002698
-1.81875,-0.03258871919419185
-1.818125,-0.03258871919419185
-1.8175,-0.03326190157710941
-1.816875,-0.03393508396002698
-1.81625,-0.03494485753440332
-1.815625,-0.03595463110877967
-1.815,-0.03696440468315602
-1.814375,-0.03898395183190871
-1.81375,-0.04066690778920262
-1.813125,-0.04201327255503776
-1.8125,-0.04268645493795532
-1.811875,-0.03999372540628506
-1.81125,-0.03696440468315602
-1.810625,-0.03393508396002698
-1.81,-0.03528144872586211
-1.809375,-0.03898395183190871
-1.80875,-0.03763758706607358
-1.808125,-0.03494485753440332
-1.8075,-0.03258871919419185
-1.806875,-0.0315789456198155
-1.80625,-0.03090576323689793
-1.805625,-0.02989598966252159
-1.805,-0.03191553681127429
-1.804375,-0.03595463110877967
-1.80375,-0.03932054302336749
-1.803125,-0.04100349898066141
-1.8025,-0.04134009017212019
-1.801875,-0.04100349898066141
-1.80125,-0.04100349898066141
-1.800625,-0.04201327255503776
-1.8,-0.04234986374649653
-1.799375,-0.04134009017212019
-1.79875,-0.03864736064044993
-1.798125,-0.03831076944899114
-1.7975,-0.03831076944899114
-1.796875,-0.0373009958746148
-1.79625,-0.03662781349169723
-1.795625,-0.03662781349169723
-1.795,-0.0373009958746148
-1.794375,-0.03864736064044993
-1.79375,-0.03898395183190871
-1.793125,-0.03932054302336749
-1.7925,-0.03965713421482628
-1.791875,-0.03763758706607358
-1.79125,-0.03326190157710941
-1.790625,-0.03056917204543915
-1.79,-0.03056917204543915
-1.789375,-0.03393508396002698
-1.78875,-0.03460826634294454
-1.788125,-0.03292531038565063
-1.7875,-0.03090576323689793
-1.786875,-0.03023258085398037
-1.78625,-0.02888621608814524
-1.785625,-0.02821303370522768
-1.785,-0.0278764425137689
-1.784375,-0.02753985132231011
-1.78375,-0.02686666893939255
-1.783125,-0.0258568953650162
-1.7825,-0.02552030417355742
-1.781875,-0.02518371298209864
-1.78125,-0.02552030417355742
-1.780625,-0.02484712179063985
-1.78,-0.02383734821626351
-1.779375,-0.02282757464188716
-1.77875,-0.02249098345042837
-1.778125,-0.02350075702480472
-1.7775,-0.02417393940772229
-1.776875,-0.02316416583334594
-1.77625,-0.02181780106751081
-1.775625,-0.02148120987605203
-1.775,-0.02148120987605203
-1.774375,-0.02249098345042837
-1.77375,-0.02249098345042837
-1.773125,-0.02383734821626351
-1.7725,-0.02417393940772229
-1.771875,-0.02282757464188716
-1.77125,-0.01979825391875812
-1.770625,-0.01845188915292299
-1.77,-0.01878848034438177
-1.769375,-0.01811529796146421
-1.76875,-0.01643234200417029
-1.768125,-0.01643234200417029
-1.7675,-0.01508597723833516
-1.766875,-0.01340302128104125
-1.76625,-0.01239324770666491
-1.765625,-0.0086907446006183
-1.765,-0.005661423877489258
-1.764375,-0.002968694345818999
-1.76375,-0.003641876728736564
-1.763125,-0.005661423877489258
-1.7625,-0.007007788643324388
-1.761875,-0.007680971026241952
-1.76125,-0.008354153409159517
-1.760625,-0.008354153409159517
-1.76,-0.008017562217700735
-1.759375,-0.006671197451865605
-1.75875,-0.006334606260406822
-1.758125,-0.00734437983478317
-1.7575,-0.008017562217700735
-1.756875,-0.008354153409159517
-1.75625,-0.0086907446006183
-1.755625,-0.009027335792077082
-1.755,-0.01037370055791221
-1.754375,-0.01138347413228856
-1.75375,-0.01272983889812369
-1.753125,-0.01306643008958247
-1.7525,-0.01306643008958247
-1.751875,-0.01071029174937099
-1.75125,-0.006671197451865605
-1.750625,-0.004651650303112911
-1.75,-0.003978467920195346
-1.749375,-0.002968694345818999
-1.74875,-0.001958920771442652
-1.748125,-0.001285738388525087
-1.7475,-0.0009491471970663046
-1.746875,-0.0002759648141487398
-1.74625,-0.0002759648141487398
-1.745625,6.062637731004257e-05
-1.745,6.062637731004257e-05
-1.744375,0.0007338087602276073
-1.74375,0.00107039995168639
-1.743125,0.002080173526062737
-1.7425,0.003089947100439084
-1.741875,0.003089947100439084
-1.74125,0.003089947100439084
-1.740625,0.002753355908980301
-1.74,0.002753355908980301
-1.739375,0.004099720674815431
-1.73875,0.005782676632109343
-1.738125,0.006455859015026908
-1.7375,0.006455859015026908
-1.736875,0.00679245020648569
-1.73625,0.006455859015026908
-1.735625,0.005446085440650561
-1.735,0.003089947100439084
-1.734375,-0.001958920771442652
-1.73375,-0.004315059111654128
-1.733125,-0.003305285537277781
-1.7325,-0.001958920771442652
-1.731875,-0.002632103154360217
-1.73125,-0.001285738388525087
-1.730625,0.002416764717521519
-1.73,0.003763129483356649
-1.729375,0.003089947100439084
-1.72875,0.006119267823568125
-1.728125,0.009821770929614731
-1.7275,0.01217790926982621
-1.726875,0.01352427403566134
-1.72625,0.0141974564185789
-1.725625,0.01453404761003768
-1.725,0.01554382118441403
-1.724375,0.01588041237587282
-1.72375,0.01588041237587282
-1.723125,0.01554382118441403
-1.7225,0.0162170035673316
-1.721875,0.01722677714170794
-1.72125,0.01689018595024916
-1.720625,0.01655359475879038
-1.72,0.01689018595024916
-1.719375,0.01823655071608429
-1.71875,0.0199195066733782
-1.718125,0.02025609786483699
-1.7175,0.02059268905629577
-1.716875,0.02294882739650724
-1.71625,0.02732451288547141
-1.715625,0.02968065122568289
-1.715,0.03035383360860046
-1.714375,0.03102701599151803
-1.71375,0.03102701599151803
-1.713125,0.03035383360860046
-1.7125,0.02968065122568289
-1.711875,0.03035383360860046
-1.71125,0.03405633671464706
-1.710625,0.03641247505485854
-1.71,0.03708565743777611
-1.709375,0.03876861339507002
-1.70875,0.04314429888403419
-1.708125,0.04651021079862201
-1.7075,0.04920294033029227
-1.706875,0.05088589628758618
-1.70625,0.05223226105342131
-1.705625,0.05357862581925645
-1.705,0.05492499058509157
-1.704375,0.05593476415946792
-1.70375,0.05593476415946792
-1.703125,0.05660794654238548
-1.7025,0.05761772011676183
-1.701875,0.05795431130822062
-1.70125,0.05694453773384427
-1.700625,0.05660794654238548
-1.7,0.05728112892530305
-1.699375,0.05829090249967939
-1.69875,0.06031044964843209
-1.698125,0.06266658798864357
-1.6975,0.06670568228614895
-1.696875,0.0677154558605253
-1.69625,0.06569590871177261
-1.695625,0.06704227347760774
-1.695,0.06805204705198409
-1.694375,0.07007159420073678
-1.69375,0.07411068849824216
-1.693125,0.07714000922137121
-1.6925,0.07915955637012391
-1.691875,0.07949614756158269
-1.69125,0.08050592113595903
-1.690625,0.0811791035188766
-1.69,0.0811791035188766
-1.689375,0.08252546828471173
-1.68875,0.08656456258221712
-1.688125,0.09060365687972251
-1.6875,0.09363297760285155
-1.686875,0.09531593356014546
-1.68625,0.09632570713452181
-1.685625,0.09666229832598058
-1.685,0.09733548070889815
-1.684375,0.09868184547473328
-1.68375,0.09767207190035694
-1.683125,0.09531593356014546
-1.6825,0.09699888951743937
-1.681875,0.09834525428327449
-1.68125,0.09565252475160424
-1.680625,0.0926232040284752
-1.68,0.09228661283701642
-1.679375,0.09632570713452181
-1.67875,0.1003648014320272
-1.678125,0.1013745750064035
-1.6775,0.1020477573893211
-1.676875,0.100701392623486
-1.67625,0.09733548070889815
-1.675625,0.09632570713452181
-1.675,0.09699888951743937
-1.674375,0.09800866309181572
-1.67375,0.09834525428327449
-1.673125,0.09767207190035694
-1.6725,0.09666229832598058
-1.671875,0.09767207190035694
-1.67125,0.1017111661978623
-1.670625,0.100701392623486
-1.67,0.09767207190035694
-1.669375,0.09699888951743937
-1.66875,0.1000282102405684
-1.668125,0.1040673045380738
-1.6675,0.1067600340697441
-1.666875,0.1087795812184967
-1.66625,0.1101259459843319
-1.665625,0.1104625371757907
-1.665,0.111472310750167
-1.664375,0.1118089019416258
-1.66375,0.1118089019416258
-1.663125,0.1124820843245434
-1.6625,0.1134918578989197
-1.661875,0.1124820843245434
-1.66125,0.1091161724099555
-1.660625,0.1094527636014143
-1.66,0.1121454931330846
-1.659375,0.1148382226647548
-1.65875,0.1138284490903785
-1.658125,0.1118089019416258
-1.6575,0.1138284490903785
-1.656875,0.11618458743059
-1.65625,0.1171943610049663
-1.655625,0.1175309521964251
-1.655,0.1158479962391312
-1.654375,0.1118089019416258
-1.65375,0.1101259459843319
-1.653125,0.1104625371757907
-1.6525,0.1118089019416258
-1.651875,0.1128186755160021
-1.65125,0.1134918578989197
-1.650625,0.1134918578989197
-1.65,0.1118089019416258
-1.649375,0.1118089019416258
-1.64875,0.1158479962391312
-1.648125,0.1208968641110129
-1.6475,0.123926184834142
-1.646875,0.1229164112597656
-1.64625,0.1208968641110129
-1.645625,0.1229164112597656
-1.645,0.1242627760256007
-1.644375,0.1212334553024717
-1.64375,0.1188773169622602
-1.643125,0.1175309521964251
-1.6425,0.1165211786220487
-1.641875,0.1158479962391312
-1.64125,0.1148382226647548
-1.640625,0.1148382226647548
-1.64,0.1158479962391312
-1.639375,0.1168577698135075
-1.63875,0.1178675433878839
-1.638125,0.1171943610049663
-1.6375,0.1168577698135075
-1.636875,0.1175309521964251
-1.63625,0.1182041345793427
-1.635625,0.1185407257708015
-1.635,0.1175309521964251
-1.634375,0.11618458743059
-1.63375,0.1148382226647548
-1.633125,0.1138284490903785
-1.6325,0.1124820843245434
-1.631875,0.1118089019416258
-1.63125,0.1118089019416258
-1.630625,0.1118089019416258
-1.63,0.1107991283672494
-1.629375,0.1111357195587082
-1.62875,0.1118089019416258
-1.628125,0.1124820843245434
-1.6275,0.1128186755160021
-1.626875,0.1121454931330846
-1.62625,0.1124820843245434
-1.625625,0.1131552667074609
-1.625,0.111472310750167
-1.624375,0.1070966252612028
-1.62375,0.1023843485807799
-1.623125,0.09699888951743937
-1.6225,0.09329638641139276
-1.621875,0.08993047449680494
-1.62125,0.08420842424200564
-1.620625,0.08016932994450025
-1.62,0.07747660041283
-1.619375,0.07680341802991243
-1.61875,0.07411068849824216
-1.618125,0.06939841181781922
-1.6175,0.06603249990323139
-1.616875,0.06468613513739627
-1.61625,0.06300317918010236
-1.615625,0.05896408488259696
-1.615,0.05357862581925645
-1.614375,0.05021271390466862
-1.61375,0.04550043722424567
-1.613125,0.03876861339507002
-1.6125,0.03405633671464706
-1.611875,0.03035383360860046
-1.61125,0.02867087765130655
-1.610625,0.02631473931109507
-1.61,0.02395860097088359
-1.609375,0.02294882739650724
-1.60875,0.02328541858796603
-1.608125,0.02328541858796603
-1.6075,0.02395860097088359
-1.606875,0.0219390538221309
-1.60625,0.01857314190754308
-1.605625,0.01588041237587282
-1.605,0.01453404761003768
-1.604375,0.01352427403566134
-1.60375,0.01083154450399108
-1.603125,0.007802223780862037
-1.6025,0.005782676632109343
-1.601875,0.004099720674815431
-1.60125,0.002416764717521519
-1.600625,-0.001622329579983869
-1.6,-0.005324832686030475
-1.599375,-0.006671197451865605
-1.59875,-0.007680971026241952
-1.598125,-0.009027335792077082
-1.5975,-0.009363926983535864
-1.596875,-0.01239324770666491
-1.59625,-0.01643234200417029
-1.595625,-0.0201348451102169
-1.595,-0.02316416583334594
-1.594375,-0.02484712179063985
-1.59375,-0.02653007774793376
-1.593125,-0.02821303370522768
-1.5925,-0.02888621608814524
-1.591875,-0.02922280727960402
-1.59125,-0.02955939847106281
-1.590625,-0.03056917204543915
-1.59,-0.03124235442835672
-1.589375,-0.03023258085398037
-1.58875,-0.02888621608814524
-1.588125,-0.02753985132231011
-1.5875,-0.02417393940772229
-1.586875,-0.02383734821626351
-1.58625,-0.02619348655647499
-1.585625,-0.0278764425137689
-1.585,-0.02888621608814524
-1.584375,-0.02955939847106281
-1.58375,-0.02955939847106281
-1.583125,-0.02888621608814524
-1.5825,-0.02888621608814524
-1.581875,-0.03056917204543915
-1.58125,-0.03460826634294454
-1.580625,-0.03662781349169723
-1.58,-0.03763758706607358
-1.579375,-0.0373009958746148
-1.57875,-0.0373009958746148
-1.578125,-0.03831076944899114
-1.5775,-0.03932054302336749
-1.576875,-0.03932054302336749
-1.57625,-0.03965713421482628
-1.575625,-0.03965713421482628
-1.575,-0.03965713421482628
-1.574375,-0.03932054302336749
-1.57375,-0.04033031659774384
-1.573125,-0.04033031659774384
-1.5725,-0.04066690778920262
-1.571875,-0.03965713421482628
-1.57125,-0.03595463110877967
-1.570625,-0.03326190157710941
-1.57,-0.03225212800273306
-1.569375,-0.03292531038565063
-1.56875,-0.03258871919419185
-1.568125,-0.02955939847106281
-1.5675,-0.02753985132231011
-1.566875,-0.02686666893939255
-1.56625,-0.02653007774793376
-1.565625,-0.02619348655647499
-1.565,-0.02753985132231011
-1.564375,-0.03124235442835672
-1.56375,-0.03393508396002698
-1.563125,-0.03595463110877967
-1.5625,-0.03696440468315602
-1.561875,-0.0373009958746148
-1.56125,-0.03831076944899114
-1.560625,-0.03898395183190871
-1.56,-0.03898395183190871
-1.559375,-0.03797417825753237
-1.55875,-0.03696440468315602
-1.558125,-0.03696440468315602
-1.5575,-0.0373009958746148
-1.556875,-0.03696440468315602
-1.55625,-0.0373009958746148
-1.555625,-0.03797417825753237
-1.555,-0.03932054302336749
-1.554375,-0.03999372540628506
-1.55375,-0.04033031659774384
-1.553125,-0.04134009017212019
-1.5525,-0.04167668136357897
-1.551875,-0.04234986374649653
-1.55125,-0.04234986374649653
-1.550625,-0.04033031659774384
-1.55,-0.03831076944899114
-1.549375,-0.03561803991732089
-1.54875,-0.0335984927685682
-1.548125,-0.03225212800273306
-1.5475,-0.03124235442835672
-1.546875,-0.03056917204543915
-1.54625,-0.03090576323689793
-1.545625,-0.03056917204543915
-1.545,-0.02955939847106281
-1.544375,-0.02854962489668646
-1.54375,-0.02720326013085133
-1.543125,-0.0258568953650162
-1.5425,-0.02552030417355742
-1.541875,-0.0278764425137689
-1.54125,-0.03191553681127429
-1.540625,-0.03460826634294454
-1.54,-0.03662781349169723
-1.539375,-0.03595463110877967
-1.53875,-0.03595463110877967
-1.538125,-0.0373009958746148
-1.5375,-0.0373009958746148
-1.536875,-0.03629122230023845
-1.53625,-0.03561803991732089
-1.535625,-0.03595463110877967
-1.535,-0.03696440468315602
-1.534375,-0.0373009958746148
-1.53375,-0.03864736064044993
-1.533125,-0.04066690778920262
-1.5325,-0.04201327255503776
-1.531875,-0.0430230461294141
-1.53125,-0.04335963732087288
-1.530625,-0.04436941089524923
-1.53,-0.04504259327816679
-1.529375,-0.04403281970379045
-1.52875,-0.04033031659774384
-1.528125,-0.03629122230023845
-1.5275,-0.0335984927685682
-1.526875,-0.0315789456198155
-1.52625,-0.03023258085398037
-1.525625,-0.02989598966252159
-1.525,-0.02922280727960402
-1.524375,-0.02888621608814524
-1.52375,-0.0315789456198155
-1.523125,-0.03494485753440332
-1.5225,-0.03763758706607358
-1.521875,-0.03898395183190871
-1.52125,-0.03965713421482628
-1.520625,-0.03932054302336749
-1.52,-0.03831076944899114
-1.519375,-0.03629122230023845
-1.51875,-0.03494485753440332
-1.518125,-0.03528144872586211
-1.5175,-0.03528144872586211
-1.516875,-0.03595463110877967
-1.51625,-0.03629122230023845
-1.515625,-0.03696440468315602
-1.515,-0.0373009958746148
-1.514375,-0.03797417825753237
-1.51375,-0.03898395183190871
-1.513125,-0.03999372540628506
-1.5125,-0.04134009017212019
-1.511875,-0.03999372540628506
-1.51125,-0.03528144872586211
-1.510625,-0.03292531038565063
-1.51,-0.03292531038565063
-1.509375,-0.03595463110877967
-1.50875,-0.03696440468315602
-1.508125,-0.03460826634294454
-1.5075,-0.03561803991732089
-1.506875,-0.03662781349169723
-1.50625,-0.0335984927685682
-1.505625,-0.03124235442835672
-1.505,-0.02922280727960402
-1.504375,-0.0278764425137689
-1.50375,-0.02854962489668646
-1.503125,-0.03191553681127429
-1.5025,-0.03427167515148576
-1.501875,-0.03629122230023845
-1.50125,-0.03797417825753237
-1.500625,-0.03831076944899114
-1.5,-0.03696440468315602
-1.499375,-0.03595463110877967
-1.49875,-0.03494485753440332
-1.498125,-0.03561803991732089
-1.4975,-0.03629122230023845
-1.496875,-0.03662781349169723
-1.49625,-0.0373009958746148
-1.495625,-0.03797417825753237
-1.495,-0.03932054302336749
-1.494375,-0.03999372540628506
-1.49375,-0.04066690778920262
-1.493125,-0.04033031659774384
-1.4925,-0.03999372540628506
-1.491875,-0.04100349898066141
-1.49125,-0.04100349898066141
-1.490625,-0.04234986374649653
-1.49,-0.04369622851233167
-1.489375,-0.04369622851233167
-1.48875,-0.04134009017212019
-1.488125,-0.0373009958746148
-1.4875,-0.03696440468315602
-1.486875,-0.03662781349169723
-1.48625,-0.03326190157710941
-1.485625,-0.03056917204543915
-1.485,-0.02955939847106281
-1.484375,-0.03225212800273306
-1.48375,-0.03427167515148576
-1.483125,-0.03561803991732089
-1.4825,-0.03629122230023845
-1.481875,-0.03662781349169723
-1.48125,-0.0373009958746148
-1.480625,-0.03696440468315602
-1.48,-0.03629122230023845
-1.479375,-0.03528144872586211
-1.47875,-0.03460826634294454
-1.478125,-0.03528144872586211
-1.4775,-0.03528144872586211
-1.476875,-0.03561803991732089
-1.47625,-0.03696440468315602
-1.475625,-0.03898395183190871
-1.475,-0.03999372540628506
-1.474375,-0.04100349898066141
-1.47375,-0.04201327255503776
-1.473125,-0.04234986374649653
-1.4725,-0.04167668136357897
-1.471875,-0.03898395183190871
-1.47125,-0.03494485753440332
-1.470625,-0.03326190157710941
-1.47,-0.03393508396002698
-1.469375,-0.03561803991732089
-1.46875,-0.03292531038565063
-1.468125,-0.03023258085398037
-1.4675,-0.02922280727960402
-1.466875,-0.0278764425137689
-1.46625,-0.02720326013085133
-1.465625,-0.02619348655647499
-1.465,-0.02720326013085133
-1.464375,-0.03090576323689793
-1.46375,-0.03292531038565063
-1.463125,-0.03292531038565063
-1.4625,-0.02989598966252159
-1.461875,-0.03023258085398037
-1.46125,-0.03258871919419185
-1.460625,-0.03393508396002698
-1.46,-0.03393508396002698
-1.459375,-0.03326190157710941
-1.45875,-0.03326190157710941
-1.458125,-0.03494485753440332
-1.4575,-0.03561803991732089
-1.456875,-0.03561803991732089
-1.45625,-0.03629122230023845
-1.455625,-0.03629122230023845
-1.455,-0.0373009958746148
-1.454375,-0.03797417825753237
-1.45375,-0.03965713421482628
-1.453125,-0.04100349898066141
-1.4525,-0.04167668136357897
-1.451875,-0.04268645493795532
-1.45125,-0.0430230461294141
-1.450625,-0.04100349898066141
-1.45,-0.03763758706607358
-1.449375,-0.03393508396002698
-1.44875,-0.03056917204543915
-1.448125,-0.02888621608814524
-1.4475,-0.02854962489668646
-1.446875,-0.02854962489668646
-1.44625,-0.02753985132231011
-1.445625,-0.02720326013085133
-1.445,-0.02686666893939255
-1.444375,-0.02653007774793376
-1.44375,-0.02753985132231011
-1.443125,-0.03090576323689793
-1.4425,-0.0335984927685682
-1.441875,-0.03460826634294454
-1.44125,-0.03528144872586211
-1.440625,-0.03561803991732089
-1.44,-0.03528144872586211
-1.439375,-0.03427167515148576
-1.43875,-0.03427167515148576
-1.438125,-0.03494485753440332
-1.4375,-0.03494485753440332
-1.436875,-0.03427167515148576
-1.43625,-0.03326190157710941
-1.435625,-0.03326190157710941
-1.435,-0.0335984927685682
-1.434375,-0.03460826634294454
-1.43375,-0.03696440468315602
-1.433125,-0.03831076944899114
-1.4325,-0.03864736064044993
-1.431875,-0.03864736064044993
-1.43125,-0.03797417825753237
-1.430625,-0.03595463110877967
-1.43,-0.03494485753440332
-1.429375,-0.03629122230023845
-1.42875,-0.03460826634294454
-1.428125,-0.03191553681127429
-1.4275,-0.02989598966252159
-1.426875,-0.02821303370522768
-1.42625,-0.02686666893939255
-1.425625,-0.02619348655647499
-1.425,-0.0258568953650162
-1.424375,-0.02552030417355742
-1.42375,-0.02753985132231011
-1.423125,-0.03124235442835672
-1.4225,-0.03326190157710941
-1.421875,-0.03460826634294454
-1.42125,-0.03460826634294454
-1.420625,-0.03393508396002698
-1.42,-0.0335984927685682
-1.419375,-0.03258871919419185
-1.41875,-0.03258871919419185
-1.418125,-0.03292531038565063
-1.4175,-0.03326190157710941
-1.416875,-0.03292531038565063
-1.41625,-0.0335984927685682
-1.415625,-0.03393508396002698
-1.415,-0.03528144872586211
-1.414375,-0.03662781349169723
-1.41375,-0.03797417825753237
-1.413125,-0.03763758706607358
-1.4125,-0.03763758706607358
-1.411875,-0.03797417825753237
-1.41125,-0.03831076944899114
-1.410625,-0.03932054302336749
-1.41,-0.04033031659774384
-1.409375,-0.03965713421482628
-1.40875,-0.03629122230023845
-1.408125,-0.03225212800273306
-1.4075,-0.02989598966252159
-1.406875,-0.0315789456198155
-1.40625,-0.03326190157710941
-1.405625,-0.03090576323689793
-1.405,-0.02955939847106281
-1.404375,-0.03124235442835672
-1.40375,-0.03326190157710941
-1.403125,-0.03460826634294454
-1.4025,-0.03460826634294454
-1.401875,-0.03528144872586211
-1.40125,-0.03629122230023845
-1.400625,-0.03629122230023845
-1.4,-0.03595463110877967
-1.399375,-0.03528144872586211
-1.39875,-0.03460826634294454
-1.398125,-0.03528144872586211
-1.3975,-0.03561803991732089
-1.396875,-0.03595463110877967
-1.39625,-0.03561803991732089
-1.395625,-0.03629122230023845
-1.395,-0.0373009958746148
-1.394375,-0.03797417825753237
-1.39375,-0.03898395183190871
-1.393125,-0.03965713421482628
-1.3925,-0.04033031659774384
-1.391875,-0.04066690778920262
-1.39125,-0.04167668136357897
-1.390625,-0.04335963732087288
-1.39,-0.04268645493795532
-1.389375,-0.03696440468315602
-1.38875,-0.03258871919419185
-1.388125,-0.02955939847106281
-1.3875,-0.02753985132231011
-1.386875,-0.02619348655647499
-1.38625,-0.02518371298209864
-1.385625,-0.02383734821626351
-1.385,-0.02249098345042837
-1.384375,-0.0221543922589696
-1.38375,-0.02249098345042837
-1.383125,-0.02282757464188716
-1.3825,-0.0258568953650162
-1.381875,-0.02888621608814524
-1.38125,-0.03090576323689793
-1.380625,-0.03258871919419185
-1.38,-0.0335984927685682
-1.379375,-0.03292531038565063
-1.37875,-0.03292531038565063
-1.378125,-0.0335984927685682
-1.3775,-0.03326190157710941
-1.376875,-0.03225212800273306
-1.37625,-0.03225212800273306
-1.375625,-0.03326190157710941
-1.375,-0.03393508396002698
-1.374375,-0.03460826634294454
-1.37375,-0.03595463110877967
-1.373125,-0.03629122230023845
-1.3725,-0.03696440468315602
-1.371875,-0.03528144872586211
-1.37125,-0.03124235442835672
-1.370625,-0.02955939847106281
-1.37,-0.03023258085398037
-1.369375,-0.0315789456198155
-1.36875,-0.03090576323689793
-1.368125,-0.02854962489668646
-1.3675,-0.02753985132231011
-1.366875,-0.02686666893939255
-1.36625,-0.0258568953650162
-1.365625,-0.02518371298209864
-1.365,-0.02720326013085133
-1.364375,-0.03124235442835672
-1.36375,-0.03326190157710941
-1.363125,-0.03460826634294454
-1.3625,-0.03561803991732089
-1.361875,-0.03629122230023845
-1.36125,-0.03696440468315602
-1.360625,-0.03662781349169723
-1.36,-0.03561803991732089
-1.359375,-0.03427167515148576
-1.35875,-0.03460826634294454
-1.358125,-0.03494485753440332
-1.3575,-0.03460826634294454
-1.356875,-0.03393508396002698
-1.35625,-0.0335984927685682
-1.355625,-0.03460826634294454
-1.355,-0.03595463110877967
-1.354375,-0.03696440468315602
-1.35375,-0.03932054302336749
-1.353125,-0.04100349898066141
-1.3525,-0.04268645493795532
-1.351875,-0.0430230461294141
-1.35125,-0.04234986374649653
-1.350625,-0.0430230461294141
-1.35,-0.0430230461294141
-1.349375,-0.04201327255503776
-1.34875,-0.03864736064044993
-1.348125,-0.03427167515148576
-1.3475,-0.03090576323689793
-1.346875,-0.02854962489668646
-1.34625,-0.02720326013085133
-1.345625,-0.02653007774793376
-1.345,-0.02854962489668646
-1.344375,-0.03090576323689793
-1.34375,-0.02922280727960402
-1.343125,-0.0278764425137689
-1.3425,-0.02989598966252159
-1.341875,-0.03225212800273306
-1.34125,-0.0335984927685682
-1.340625,-0.03460826634294454
-1.34,-0.03393508396002698
-1.339375,-0.03258871919419185
-1.33875,-0.03191553681127429
-1.338125,-0.03225212800273306
-1.3375,-0.03225212800273306
-1.336875,-0.03258871919419185
-1.33625,-0.03292531038565063
-1.335625,-0.03393508396002698
-1.335,-0.03460826634294454
-1.334375,-0.03528144872586211
-1.33375,-0.0373009958746148
-1.333125,-0.03831076944899114
-1.3325,-0.03965713421482628
-1.331875,-0.04033031659774384
-1.33125,-0.04066690778920262
-1.330625,-0.04167668136357897
-1.33,-0.04234986374649653
-1.329375,-0.04167668136357897
-1.32875,-0.03898395183190871
-1.328125,-0.03595463110877967
-1.3275,-0.03595463110877967
-1.326875,-0.03528144872586211
-1.32625,-0.03258871919419185
-1.325625,-0.02989598966252159
-1.325,-0.02821303370522768
-1.324375,-0.02686666893939255
-1.32375,-0.02854962489668646
-1.323125,-0.0315789456198155
-1.3225,-0.03292531038565063
-1.321875,-0.03393508396002698
-1.32125,-0.03427167515148576
-1.320625,-0.03427167515148576
-1.32,-0.0335984927685682
-1.319375,-0.03258871919419185
-1.31875,-0.03292531038565063
-1.318125,-0.0335984927685682
-1.3175,-0.03393508396002698
-1.316875,-0.03427167515148576
-1.31625,-0.03561803991732089
-1.315625,-0.0373009958746148
-1.315,-0.03831076944899114
-1.314375,-0.03898395183190871
-1.31375,-0.04066690778920262
-1.313125,-0.04100349898066141
-1.3125,-0.04167668136357897
-1.311875,-0.03965713421482628
-1.31125,-0.03629122230023845
-1.310625,-0.03427167515148576
-1.31,-0.0335984927685682
-1.309375,-0.03528144872586211
-1.30875,-0.03460826634294454
-1.308125,-0.03258871919419185
-1.3075,-0.03090576323689793
-1.306875,-0.02922280727960402
-1.30625,-0.02753985132231011
-1.305625,-0.0258568953650162
-1.305,-0.02451053059918107
-1.304375,-0.02350075702480472
-1.30375,-0.02249098345042837
-1.303125,-0.02350075702480472
-1.3025,-0.0278764425137689
-1.301875,-0.03090576323689793
-1.30125,-0.03326190157710941
-1.300625,-0.03460826634294454
-1.3,-0.03460826634294454
-1.299375,-0.03427167515148576
-1.29875,-0.03528144872586211
-1.298125,-0.03629122230023845
-1.2975,-0.03561803991732089
-1.296875,-0.03494485753440332
-1.29625,-0.03460826634294454
-1.295625,-0.03528144872586211
-1.295,-0.03595463110877967
-1.294375,-0.03629122230023845
-1.29375,-0.03797417825753237
-1.293125,-0.03831076944899114
-1.2925,-0.03932054302336749
-1.291875,-0.03999372540628506
-1.29125,-0.04033031659774384
-1.290625,-0.03763758706607358
-1.29,-0.03528144872586211
-1.289375,-0.03528144872586211
-1.28875,-0.03292531038565063
-1.288125,-0.02922280727960402
-1.2875,-0.02686666893939255
-1.286875,-0.02619348655647499
-1.28625,-0.0258568953650162
-1.285625,-0.02518371298209864
-1.285,-0.02518371298209864
-1.284375,-0.0258568953650162
-1.28375,-0.02888621608814524
-1.283125,-0.03191553681127429
-1.2825,-0.0335984927685682
-1.281875,-0.03494485753440332
-1.28125,-0.03595463110877967
-1.280625,-0.03595463110877967
-1.28,-0.03561803991732089
-1.279375,-0.03494485753440332
-1.27875,-0.03427167515148576
-1.278125,-0.03460826634294454
-1.2775,-0.03460826634294454
-1.276875,-0.03460826634294454
-1.27625,-0.03427167515148583
-1.275625,-0.03528144872586211
-1.275,-0.03696440468315625
-1.274375,-0.03797417825753237
-1.27375,-0.03932054302336749
-1.273125,-0.04033031659774384
-1.2725,-0.04134009017212019
-1.271875,-0.0416766813635789
-1.27125,-0.04134009017212019
-1.270625,-0.03898395183190802
-1.27,-0.03595463110877967
-1.269375,-0.03662781349169716
-1.26875,-0.03629122230023845
-1.268125,-0.03326190157710941
-1.2675,-0.03124235442835672
-1.266875,-0.02955939847106281
-1.26625,-0.02821303370522799
-1.265625,-0.02720326013085133
-1.265,-0.02653007774793361
-1.264375,-0.0258568953650162
-1.26375,-0.02720326013085133
-1.263125,-0.03023258085398037
-1.2625,-0.03292531038565063
-1.261875,-0.03528144872586157
-1.26125,-0.03662781349169723
-1.260625,-0.03662781349169723
-1.26,-0.03561803991732089
-1.259375,-0.03427167515148576
-1.25875,-0.03427167515148576
-1.258125,-0.03595463110877967
-1.2575,-0.03561803991732089
-1.256875,-0.03528144872586211
-1.25625,-0.03460826634294469
-1.255625,-0.03494485753440332
-1.255,-0.03460826634294477
-1.254375,-0.03561803991732089
-1.25375,-0.03696440468315617
-1.253125,-0.03763758706607358
-1.2525,-0.03898395183190871
-1.251875,-0.03999372540628506
-1.25125,-0.04134009017212019
-1.250625,-0.04268645493795501
-1.25,-0.04335963732087288
-1.249375,-0.04302304612941357
-1.24875,-0.04066690778920262
-1.248125,-0.03696440468315602
-1.2475,-0.0335984927685682
-1.246875,-0.0315789456198155
-1.24625,-0.03090576323689809
-1.245625,-0.02955939847106281
-1.245,-0.02854962489668669
-1.244375,-0.02753985132231011
-1.24375,-0.02989598966252213
-1.243125,-0.03225212800273306
-1.2425,-0.03326190157710941
-1.241875,-0.03427167515148576
-1.24125,-0.03528144872586211
-1.240625,-0.03561803991732081
-1.24,-0.03460826634294454
-1.239375,-0.03292531038565086
-1.23875,-0.03393508396002698
-1.238125,-0.03494485753440317
-1.2375,-0.03427167515148576
-1.236875,-0.03460826634294454
-1.23625,-0.03494485753440332
-1.235625,-0.03595463110877967
-1.235,-0.03629122230023837
-1.234375,-0.0373009958746148
-1.23375,-0.03898395183190902
-1.233125,-0.04033031659774384
-1.2325,-0.04234986374649653
-1.231875,-0.03965713421482628
-1.23125,-0.03595463110877967
-1.230625,-0.03427167515148614
-1.23,-0.03528144872586211
-1.229375,-0.03662781349169693
-1.22875,-0.03460826634294454
-1.228125,-0.03191553681127383
-1.2275,-0.02989598966252159
-1.226875,-0.02854962489668646
-1.22625,-0.02720326013085133
-1.225625,-0.02619348655647499
-1.225,-0.02552030417355757
-1.224375,-0.02552030417355742
-1.22375,-0.02686666893939347
-1.223125,-0.03090576323689793
-1.2225,-0.03427167515148621
-1.221875,-0.03629122230023845
-1.22125,-0.03696440468315602
-1.220625,-0.03696440468315602
-1.22,-0.03595463110877967
-1.219375,-0.03528144872586211
-1.21875,-0.03629122230023845
-1.218125,-0.0373009958746148
-1.2175,-0.0373009958746148
-1.216875,-0.03763758706607358
-1.21625,-0.03763758706607358
-1.215625,-0.03831076944899114
-1.215,-0.03831076944899114
-1.214375,-0.03965713421482628
-1.21375,-0.04234986374649653
-1.213125,-0.04335963732087288
-1.2125,-0.04369622851233167
-1.211875,-0.0430230461294141
-1.21125,-0.04268645493795532
-1.210625,-0.03932054302336749
-1.21,-0.03561803991732089
-1.209375,-0.03292531038565063
-1.20875,-0.03090576323689793
-1.208125,-0.02955939847106281
-1.2075,-0.02922280727960402
-1.206875,-0.02922280727960402
-1.20625,-0.02922280727960402
-1.205625,-0.02821303370522768
-1.205,-0.02854962489668646
-1.204375,-0.03191553681127429
-1.20375,-0.03427167515148576
-1.203125,-0.03595463110877967
-1.2025,-0.03629122230023845
-1.201875,-0.0373009958746148
-1.20125,-0.03763758706607358
-1.200625,-0.0373009958746148
-1.2,-0.03696440468315602
-1.199375,-0.03629122230023845
-1.19875,-0.03662781349169723
-1.198125,-0.0373009958746148
-1.1975,-0.03662781349169723
-1.196875,-0.03662781349169723
-1.19625,-0.03595463110877967
-1.195625,-0.03662781349169723
-1.195,-0.0373009958746148
-1.194375,-0.03797417825753237
-1.19375,-0.03898395183190871
-1.193125,-0.03999372540628506
-1.1925,-0.04100349898066141
-1.191875,-0.04100349898066141
-1.19125,-0.04134009017212019
-1.190625,-0.04268645493795532
-1.19,-0.0430230461294141
-1.189375,-0.04234986374649653
-1.18875,-0.03898395183190871
-1.188125,-0.03561803991732089
-1.1875,-0.03258871919419185
-1.186875,-0.03056917204543915
-1.18625,-0.02989598966252159
-1.185625,-0.02922280727960402
-1.185,-0.02753985132231011
-1.184375,-0.02653007774793376
-1.18375,-0.02854962489668646
-1.183125,-0.0315789456198155
-1.1825,-0.03326190157710941
-1.181875,-0.03494485753440332
-1.18125,-0.03629122230023845
-1.180625,-0.03662781349169723
-1.18,-0.03662781349169723
-1.179375,-0.03595463110877967
-1.17875,-0.03696440468315602
-1.178125,-0.0373009958746148
-1.1775,-0.03662781349169723
-1.176875,-0.03696440468315602
-1.17625,-0.0373009958746148
-1.175625,-0.04100349898066141
-1.175,-0.04403281970379045
-1.174375,-0.04335963732087288
-1.17375,-0.0430230461294141
-1.173125,-0.04335963732087288
-1.1725,-0.04369622851233167
-1.171875,-0.03999372540628506
-1.17125,-0.03696440468315602
-1.170625,-0.03864736064044993
-1.17,-0.03999372540628506
-1.169375,-0.03965713421482628
-1.16875,-0.03561803991732089
-1.168125,-0.0315789456198155
-1.1675,-0.02922280727960402
-1.166875,-0.02720326013085133
-1.16625,-0.02686666893939255
-1.165625,-0.02686666893939255
-1.165,-0.02653007774793376
-1.164375,-0.02922280727960402
-1.16375,-0.03191553681127429
-1.163125,-0.03326190157710941
-1.1625,-0.03393508396002698
-1.161875,-0.03494485753440332
-1.16125,-0.03494485753440332
-1.160625,-0.03460826634294454
-1.16,-0.03326190157710941
-1.159375,-0.03292531038565063
-1.15875,-0.03427167515148576
-1.158125,-0.03528144872586211
-1.1575,-0.03561803991732089
-1.156875,-0.03595463110877967
-1.15625,-0.03629122230023845
-1.155625,-0.03696440468315602
-1.155,-0.03696440468315602
-1.154375,-0.03797417825753237
-1.15375,-0.03898395183190871
-1.153125,-0.04033031659774384
-1.1525,-0.04201327255503776
-1.151875,-0.04234986374649653
-1.15125,-0.04268645493795532
-1.150625,-0.04335963732087288
-1.15,-0.0430230461294141
-1.149375,-0.04167668136357897
-1.14875,-0.03932054302336749
-1.148125,-0.03595463110877967
-1.1475,-0.0335984927685682
-1.146875,-0.03191553681127429
-1.14625,-0.03056917204543915
-1.145625,-0.02955939847106281
-1.145,-0.02955939847106281
-1.144375,-0.03225212800273306
-1.14375,-0.03460826634294454
-1.143125,-0.03595463110877967
-1.1425,-0.0373009958746148
-1.141875,-0.03831076944899114
-1.14125,-0.03864736064044993
-1.140625,-0.03831076944899114
-1.14,-0.03662781349169723
-1.139375,-0.03561803991732089
-1.13875,-0.03561803991732089
-1.138125,-0.03595463110877967
-1.1375,-0.03561803991732089
-1.136875,-0.03595463110877967
-1.13625,-0.03662781349169723
-1.135625,-0.03864736064044993
-1.135,-0.04033031659774384
-1.134375,-0.04134009017212019
-1.13375,-0.04201327255503776
-1.133125,-0.04234986374649653
-1.1325,-0.04335963732087288
-1.131875,-0.04403281970379045
-1.13125,-0.04436941089524923
-1.130625,-0.04234986374649653
-1.13,-0.03932054302336749
-1.129375,-0.03932054302336749
-1.12875,-0.03662781349169723
-1.128125,-0.03494485753440332
-1.1275,-0.03662781349169723
-1.126875,-0.03528144872586211
-1.12625,-0.03258871919419185
-1.125625,-0.03056917204543915
-1.125,-0.03124235442835672
-1.124375,-0.0335984927685682
-1.12375,-0.03528144872586211
-1.123125,-0.03595463110877967
-1.1225,-0.03629122230023845
-1.121875,-0.03696440468315602
-1.12125,-0.0373009958746148
-1.120625,-0.0373009958746148
-1.12,-0.03595463110877967
-1.119375,-0.03427167515148576
-1.11875,-0.03393508396002698
-1.118125,-0.03427167515148576
-1.1175,-0.03460826634294454
-1.116875,-0.03427167515148576
-1.11625,-0.03460826634294454
-1.115625,-0.03528144872586211
-1.115,-0.03528144872586211
-1.114375,-0.03629122230023845
-1.11375,-0.03797417825753237
-1.113125,-0.03999372540628506
-1.1125,-0.04100349898066141
-1.111875,-0.03965713421482628
-1.11125,-0.03696440468315602
-1.110625,-0.03528144872586211
-1.11,-0.03225212800273306
-1.109375,-0.02619348655647499
-1.10875,-0.02148120987605203
-1.108125,-0.01878848034438177
-1.1075,-0.01777870677000543
-1.106875,-0.01676893319562908
-1.10625,-0.01575915962125273
-1.105625,-0.01172006532374734
-1.105,-0.007007788643324388
-1.104375,-0.002968694345818999
-1.10375,-0.0009491471970663046
-1.103125,6.062637731004257e-05
-1.1025,0.001743582334603954
-1.101875,0.002416764717521519
-1.10125,0.003089947100439084
-1.100625,0.004436311866274214
-1.1,0.005446085440650561
-1.099375,0.006119267823568125
-1.09875,0.005782676632109343
-1.098125,0.005109494249191778
-1.0975,0.004772903057732996
-1.096875,0.006119267823568125
-1.09625,0.009485179738155949
-1.095625,0.01184131807836743
-1.095,0.01318768284420256
-1.094375,0.01352427403566134
-1.09375,0.01352427403566134
-1.093125,0.01217790926982621
-1.0925,0.01453404761003768
-1.091875,0.01823655071608429
-1.09125,0.0199195066733782
-1.090625,0.02294882739650724
-1.09,0.0276611040769302
-1.089375,0.03170019837443559
-1.08875,0.03506611028902341
-1.088125,0.03708565743777611
-1.0875,0.03876861339507002
-1.086875,0.0411247517352815
-1.08625,0.04280770769257541
-1.085625,0.04751998437299836
-1.085,0.04920294033029227
-1.084375,0.04785657556445715
-1.08375,0.0468468019900808
-1.083125,0.04583702841570445
-1.0825,0.04583702841570445
-1.081875,0.04550043722424567
-1.08125,0.04583702841570445
-1.080625,0.04583702841570445
-1.08,0.04718339318153958
-1.079375,0.04785657556445715
-1.07875,0.04751998437299836
-1.078125,0.04751998437299836
-1.0775,0.04819316675591592
-1.076875,0.04852975794737471
-1.07625,0.04751998437299836
-1.075625,0.04280770769257541
-1.075,0.0391052045865288
-1.074375,0.03607588386339976
-1.07375,0.03304656314027072
-1.073125,0.03102701599151803
-1.0725,0.03035383360860046
-1.071875,0.03203678956589437
-1.07125,0.0354027014804822
-1.070625,0.03472951909756463
-1.07,0.03270997194881194
-1.069375,0.03237338075735315
-1.06875,0.03237338075735315
-1.068125,0.03136360718297681
-1.0675,0.03136360718297681
-1.066875,0.03136360718297681
-1.06625,0.03237338075735315
-1.065625,0.03270997194881194
-1.065,0.03102701599151803
-1.064375,0.0276611040769302
-1.06375,0.0256415569281775
-1.063125,0.02463178335380116
-1.0625,0.02395860097088359
-1.061875,0.02025609786483699
-1.06125,0.01689018595024916
-1.060625,0.01453404761003768
-1.06,0.01352427403566134
-1.059375,0.01184131807836743
-1.05875,0.007129041397944473
-1.058125,0.002753355908980301
-1.0575,-0.0002759648141487398
-1.056875,-0.003305285537277781
-1.05625,-0.004988241494571694
-1.055625,-0.007007788643324388
-1.055,-0.01071029174937099
-1.054375,-0.01508597723833516
-1.05375,-0.01474938604687638
-1.053125,-0.01609575081271152
-1.0525,-0.01979825391875812
-1.051875,-0.0201348451102169
-1.05125,-0.01946166272729934
-1.050625,-0.01845188915292299
-1.05,-0.01609575081271152
-1.049375,-0.0144127948554176
-1.04875,-0.01272983889812369
-1.048125,-0.01205665651520612
-1.0475,-0.01172006532374734
-1.046875,-0.01340302128104125
-1.04625,-0.01710552438708786
-1.045625,-0.01946166272729934
-1.045,-0.02114461868459325
-1.044375,-0.02181780106751081
-1.04375,-0.0221543922589696
-1.043125,-0.02249098345042837
-1.0425,-0.02249098345042837
-1.041875,-0.02484712179063985
-1.04125,-0.02854962489668646
-1.040625,-0.03124235442835672
-1.04,-0.03191553681127429
-1.039375,-0.03225212800273306
-1.03875,-0.03292531038565063
-1.038125,-0.03326190157710941
-1.0375,-0.03326190157710941
-1.036875,-0.0335984927685682
-1.03625,-0.03460826634294454
-1.035625,-0.03595463110877967
-1.035,-0.03595463110877967
-1.034375,-0.03629122230023845
-1.03375,-0.0373009958746148
-1.033125,-0.03763758706607358
-1.0325,-0.03797417825753237
-1.031875,-0.03696440468315602
-1.03125,-0.0373009958746148
-1.030625,-0.03831076944899114
-1.03,-0.03864736064044993
-1.029375,-0.0373009958746148
-1.02875,-0.03494485753440332
-1.028125,-0.02989598966252159
-1.0275,-0.02552030417355742
-1.026875,-0.02350075702480472
-1.02625,-0.02282757464188716
-1.025625,-0.02181780106751081
-1.025,-0.02316416583334594
-1.024375,-0.02686666893939255
-1.02375,-0.02888621608814524
-1.023125,-0.03056917204543915
-1.0225,-0.0315789456198155
-1.021875,-0.03326190157710941
-1.02125,-0.03460826634294454
-1.020625,-0.03460826634294454
-1.02,-0.0335984927685682
-1.019375,-0.03326190157710941
-1.01875,-0.03292531038565063
-1.018125,-0.03326190157710941
-1.0175,-0.03326190157710941
-1.016875,-0.03258871919419185
-1.01625,-0.03292531038565063
-1.015625,-0.03427167515148576
-1.015,-0.03528144872586211
-1.014375,-0.03662781349169723
-1.01375,-0.03763758706607358
-1.013125,-0.03831076944899114
-1.0125,-0.03965713421482628
-1.011875,-0.04100349898066141
-1.01125,-0.04066690778920262
-1.010625,-0.03696440468315602
-1.01,-0.03528144872586211
-1.009375,-0.03629122230023845
-1.00875,-0.03561803991732089
-1.008125,-0.0335984927685682
-1.0075,-0.03528144872586211
-1.006875,-0.03460826634294454
-1.00625,-0.03124235442835672
-1.005625,-0.02821303370522768
-1.005,-0.02619348655647499
-1.004375,-0.02619348655647499
-1.00375,-0.02854962489668646
-1.003125,-0.03090576323689793
-1.0025,-0.02989598966252159
-1.001875,-0.03090576323689793
-1.00125,-0.03258871919419185
-1.000625,-0.03326190157710941
-1,-0.03258871919419185
-0.999375,-0.0315789456198155
-0.99875,-0.03124235442835672
-0.998125,-0.03023258085398037
-0.9975000000000001,-0.03023258085398037
-0.996875,-0.03090576323689793
-0.99625,-0.0315789456198155
-0.995625,-0.03326190157710941
-0.995,-0.03460826634294454
-0.994375,-0.03629122230023845
-0.99375,-0.03763758706607358
-0.993125,-0.03864736064044993
-0.9925,-0.03965713421482628
-0.991875,-0.03831076944899114
-0.99125,-0.03528144872586211
-0.990625,-0.03326190157710941
-0.99,-0.03191553681127429
-0.989375,-0.03393508396002698
-0.98875,-0.0335984927685682
-0.988125,-0.03056917204543915
-0.9875,-0.02821303370522768
-0.9868749999999999,-0.02720326013085133
-0.98625,-0.02686666893939255
-0.985625,-0.02653007774793376
-0.985,-0.02619348655647499
-0.984375,-0.02922280727960402
-0.98375,-0.0315789456198155
-0.983125,-0.03258871919419185
-0.9825,-0.03023258085398037
-0.9818750000000001,-0.02922280727960402
-0.98125,-0.03056917204543915
-0.980625,-0.03124235442835672
-0.98,-0.03124235442835672
-0.979375,-0.03090576323689793
-0.97875,-0.03191553681127429
-0.978125,-0.03225212800273306
-0.9775,-0.03191553681127429
-0.976875,-0.0315789456198155
-0.97625,-0.0315789456198155
-0.975625,-0.03225212800273306
-0.975,-0.03393508396002698
-0.974375,-0.03629122230023845
-0.97375,-0.03797417825753237
-0.973125,-0.03999372540628506
-0.9725,-0.04100349898066141
-0.971875,-0.04100349898066141
-0.9712499999999999,-0.04167668136357897
-0.970625,-0.04234986374649653
-0.97,-0.04167668136357897
-0.969375,-0.04066690778920262
-0.96875,-0.03763758706607358
-0.968125,-0.03393508396002698
-0.9675,-0.0315789456198155
-0.966875,-0.02955939847106281
-0.9662500000000001,-0.0278764425137689
-0.965625,-0.02653007774793376
-0.965,-0.02653007774793376
-0.964375,-0.02922280727960402
-0.96375,-0.0315789456198155
-0.963125,-0.03292531038565063
-0.9625,-0.03393508396002698
-0.961875,-0.03460826634294454
-0.96125,-0.03460826634294454
-0.960625,-0.03393508396002698
-0.96,-0.03292531038565063
-0.959375,-0.03225212800273306
-0.95875,-0.03258871919419185
-0.958125,-0.03191553681127429
-0.9575,-0.03056917204543915
-0.956875,-0.02955939847106281
-0.95625,-0.03023258085398037
-0.9556249999999999,-0.03460826634294454
-0.955,-0.04134009017212019
-0.954375,-0.05345737306463635
-0.95375,-0.06490147357423495
-0.953125,-0.07432602693508086
-0.9525,-0.08072125957279773
-0.951875,-0.08745308340197337
-0.95125,-0.09553127199698415
-0.9506250000000001,-0.1015899134432422
-0.95,-0.1025996870176186
-0.949375,-0.09990695748594833
-0.94875,-0.09485808961406658
-0.948125,-0.08913603935926728
-0.9475,-0.0813944419557153
-0.946875,-0.07196988859486939
-0.94625,-0.05884283212797687
-0.945625,-0.04369622851233167
-0.945,-0.02653007774793376
-0.944375,-0.006334606260406822
-0.94375,0.01655359475879038
-0.943125,0.04011497816090515
-0.9425,0.06535931752031383
-0.941875,0.09094024807118128
-0.94125,0.1168577698135075
-0.940625,0.1441216563216689
-0.9399999999999999,0.1720587252127478
-0.939375,0.1989860205294504
-0.93875,0.2265864982290706
-0.938125,0.2541869759286907
-0.9375,0.2807776800539346
-0.936875,0.3060220194133432
-0.93625,0.3319395411556694
-0.935625,0.3568472893236194
-0.9350000000000001,0.3827648110659456
-0.934375,0.4113750623399421
-0.93375,0.4420048607626913
-0.933125,0.4743176151427344
-0.9325,0.5083133254800715
-0.931875,0.5416358534344909
-0.93125,0.5752949725803692
-0.930625,0.601885676705613
-0.93,0.625110468916269
-0.929375,0.6476620787440074
-0.92875,0.6665111854656992
-0.928125,0.6803114243155093
-0.9275,0.6893993864848964
-0.926875,0.693101889590943
-0.92625,0.6944482543567781
-0.925625,0.6927652983994842
-0.925,0.6880530217190612
-0.9243749999999999,0.6789650595496741
-0.92375,0.6671843678486168
-0.923125,0.6527109466158891
-0.9225,0.6335252487027385
-0.921875,0.6123200036408353
-0.92125,0.5901049850045555
-0.920625,0.563177689687853
-0.92,0.5379333503284444
-0.9193750000000001,0.513698784543412
-0.91875,0.4854251244608742
-0.918125,0.4568148731868777
-0.9175,0.4275314395299636
-0.916875,0.3969016411072144
-0.91625,0.3672816162588416
-0.915625,0.3410275033250565
-0.915,0.3157831639656479
-0.914375,0.2878460950745689
-0.91375,0.2609187997578664
-0.913125,0.2350012780155402
-0.9125,0.20740080031592
-0.911875,0.1824930521479701
-0.91125,0.1589316687458553
-0.910625,0.1333507381949879
-0.91,0.1104625371757907
-0.909375,0.0889207009224286
-0.9087499999999999,0.06838863824344286
-0.908125,0.0505493050961274
-0.9075,0.03506611028902341
-0.906875,0.01857314190754308
-0.90625,0.003426538291897866
-0.905625,-0.009363926983535864
-0.905,-0.02080802749313446
-0.904375,-0.03427167515148576
-0.9037500000000001,-0.0467255492354607
-0.903125,-0.05783305855360053
-0.9025,-0.06860397668028156
-0.901875,-0.07870171242404503
-0.90125,-0.08778967459343216
-0.900625,-0.09620445437990172
-0.9,-0.1022630958261598
-0.899375,-0.106638781315124
-0.89875,-0.1110144668040881
-0.898125,-0.1130340139528408
-0.8975,-0.1147169699101347
-0.896875,-0.1187560642076401
-0.89625,-0.1238049320795219
-0.895625,-0.1271708439941097
-0.895,-0.1302001647172387
-0.894375,-0.1325563030574502
-0.89375,-0.1339026678232853
-0.8931249999999999,-0.1345758502062029
-0.8925,-0.1322197118659914
-0.891875,-0.1291903911428624
-0.89125,-0.1271708439941097
-0.890625,-0.1234683408880631
-0.89,-0.1187560642076401
-0.889375,-0.1147169699101347
-0.88875,-0.1100046932297118
-0.8881250000000001,-0.1049558253578301
-0.8875,-0.1015899134432422
-0.886875,-0.09923377510303076
-0.88625,-0.09687763676281928
-0.885625,-0.09216536008239633
-0.885,-0.08846285697634973
-0.884375,-0.08577012744467946
-0.88375,-0.08408717148738555
-0.883125,-0.08206762433863286
-0.8825,-0.07701875646675112
-0.881875,-0.07466261812653964
-0.88125,-0.07466261812653964
-0.880625,-0.07163329740341061
-0.88,-0.06826738548882277
-0.879375,-0.06624783834007009
-0.87875,-0.06591124714861131
-0.878125,-0.06456488238277618
-0.8774999999999999,-0.06119897046818835
-0.876875,-0.05816964974505931
-0.87625,-0.0564866937877654
-0.875625,-0.05547692021338905
-0.875,-0.05480373783047148
-0.874375,-0.05547692021338905
-0.87375,-0.05379396425609514
-0.873125,-0.05009146115004853
-0.8725000000000001,-0.04706214042691949
-0.871875,-0.04537918446962558
-0.87125,-0.04537918446962558
-0.870625,-0.04234986374649653
-0.87,-0.03696440468315602
-0.869375,-0.03326190157710941
-0.86875,-0.03090576323689793
-0.868125,-0.02955939847106281
-0.8675,-0.02821303370522768
-0.866875,-0.02753985132231011
-0.86625,-0.0278764425137689
-0.865625,-0.02753985132231011
-0.865,-0.02686666893939255
-0.864375,-0.02653007774793376
-0.86375,-0.0278764425137689
-0.863125,-0.03191553681127429
-0.8625,-0.03528144872586211
-0.8618749999999999,-0.03696440468315602
-0.86125,-0.03831076944899114
-0.860625,-0.03831076944899114
-0.86,-0.03696440468315602
-0.859375,-0.03629122230023845
-0.85875,-0.0373009958746148
-0.858125,-0.03662781349169723
-0.8575,-0.03662781349169723
-0.8568750000000001,-0.03662781349169723
-0.85625,-0.03696440468315602
-0.855625,-0.03831076944899114
-0.855,-0.03898395183190871
-0.854375,-0.04033031659774384
-0.85375,-0.04134009017212019
-0.853125,-0.04201327255503776
-0.8525,-0.04167668136357897
-0.851875,-0.03999372540628506
-0.85125,-0.03662781349169723
-0.850625,-0.03427167515148576
-0.85,-0.03191553681127429
-0.849375,-0.03090576323689793
-0.84875,-0.02989598966252159
-0.848125,-0.02922280727960402
-0.8475,-0.02922280727960402
-0.846875,-0.02854962489668646
-0.8462499999999999,-0.0278764425137689
-0.845625,-0.02686666893939255
-0.845,-0.02686666893939255
-0.844375,-0.02619348655647499
-0.84375,-0.02854962489668646
-0.843125,-0.03191553681127429
-0.8425,-0.03393508396002698
-0.841875,-0.03494485753440332
-0.8412500000000001,-0.03528144872586211
-0.840625,-0.03528144872586211
-0.84,-0.03393508396002698
-0.839375,-0.0335984927685682
-0.83875,-0.03460826634294454
-0.838125,-0.03561803991732089
-0.8375,-0.03662781349169723
-0.836875,-0.0373009958746148
-0.83625,-0.03797417825753237
-0.835625,-0.03831076944899114
-0.835,-0.03898395183190871
-0.834375,-0.04066690778920262
-0.83375,-0.04167668136357897
-0.833125,-0.04234986374649653
-0.8325,-0.04234986374649653
-0.831875,-0.04369622851233167
-0.83125,-0.04605236685254314
-0.8306249999999999,-0.04706214042691949
-0.83,-0.04605236685254314
-0.829375,-0.04537918446962558
-0.82875,-0.04234986374649653
-0.828125,-0.03932054302336749
-0.8275,-0.04066690778920262
-0.826875,-0.03898395183190871
-0.82625,-0.03595463110877967
-0.8256250000000001,-0.03326190157710941
-0.825,-0.03326190157710941
-0.824375,-0.03494485753440332
-0.82375,-0.03763758706607358
-0.823125,-0.03932054302336749
-0.8225,-0.04066690778920262
-0.821875,-0.04100349898066141
-0.82125,-0.03999372540628506
-0.820625,-0.03864736064044993
-0.82,-0.0373009958746148
-0.819375,-0.03662781349169723
-0.81875,-0.03662781349169723
-0.818125,-0.03696440468315602
-0.8175,-0.03763758706607358
-0.816875,-0.0373009958746148
-0.81625,-0.03797417825753237
-0.815625,-0.03898395183190871
-0.8149999999999999,-0.04033031659774384
-0.814375,-0.04134009017212019
-0.81375,-0.04201327255503776
-0.813125,-0.04268645493795532
-0.8125,-0.04268645493795532
-0.811875,-0.04066690778920262
-0.81125,-0.03763758706607358
-0.810625,-0.03494485753440332
-0.8100000000000001,-0.03258871919419185
-0.809375,-0.03427167515148576
-0.80875,-0.03460826634294454
-0.808125,-0.03225212800273306
-0.8075,-0.03090576323689793
-0.806875,-0.02989598966252159
-0.80625,-0.02955939847106281
-0.805625,-0.03023258085398037
-0.805,-0.0315789456198155
-0.804375,-0.03494485753440332
-0.80375,-0.03763758706607358
-0.803125,-0.03999372540628506
-0.8025,-0.04066690778920262
-0.801875,-0.04134009017212019
-0.80125,-0.04167668136357897
-0.800625,-0.04134009017212019
-0.8,-0.04100349898066141
-0.7993749999999999,-0.04066690778920262
-0.79875,-0.04066690778920262
-0.798125,-0.04033031659774384
-0.7975,-0.04033031659774384
-0.796875,-0.03999372540628506
-0.79625,-0.03999372540628506
-0.795625,-0.03965713421482628
-0.795,-0.03965713421482628
-0.7943750000000001,-0.04100349898066141
-0.79375,-0.04201327255503776
-0.793125,-0.04268645493795532
-0.7925,-0.0430230461294141
-0.791875,-0.04167668136357897
-0.79125,-0.03898395183190871
-0.790625,-0.0373009958746148
-0.79,-0.03629122230023845
-0.789375,-0.03831076944899114
-0.78875,-0.03763758706607358
-0.788125,-0.03460826634294454
-0.7875,-0.03292531038565063
-0.786875,-0.03191553681127429
-0.78625,-0.03056917204543915
-0.785625,-0.02955939847106281
-0.785,-0.02888621608814524
-0.784375,-0.02821303370522768
-0.7837499999999999,-0.02753985132231011
-0.783125,-0.02720326013085133
-0.7825,-0.02653007774793376
-0.781875,-0.0258568953650162
-0.78125,-0.02518371298209864
-0.780625,-0.02383734821626351
-0.78,-0.02282757464188716
-0.779375,-0.02316416583334594
-0.7787500000000001,-0.02383734821626351
-0.778125,-0.02383734821626351
-0.7775,-0.02383734821626351
-0.776875,-0.02316416583334594
-0.77625,-0.02350075702480472
-0.775625,-0.02451053059918107
-0.775,-0.02518371298209864
-0.774375,-0.02686666893939255
-0.77375,-0.02753985132231011
-0.773125,-0.0278764425137689
-0.7725,-0.0278764425137689
-0.771875,-0.02518371298209864
-0.77125,-0.0221543922589696
-0.770625,-0.01979825391875812
-0.77,-0.01676893319562908
-0.769375,-0.0144127948554176
-0.76875,-0.01272983889812369
-0.7681249999999999,-0.01272983889812369
-0.7675,-0.01239324770666491
-0.766875,-0.01172006532374734
-0.76625,-0.01037370055791221
-0.765625,-0.005998015068948041
-0.765,-0.001622329579983869
-0.764375,0.001743582334603954
-0.76375,0.0007338087602276073
-0.7631250000000001,-0.001958920771442652
-0.7625,-0.003305285537277781
-0.761875,-0.004651650303112911
-0.76125,-0.004651650303112911
-0.760625,-0.004651650303112911
-0.76,-0.003978467920195346
-0.759375,-0.004651650303112911
-0.75875,-0.005324832686030475
-0.758125,-0.005661423877489258
-0.7575,-0.005998015068948041
-0.756875,-0.006671197451865605
-0.75625,-0.008017562217700735
-0.755625,-0.0086907446006183
-0.755,-0.01037370055791221
-0.754375,-0.01272983889812369
-0.75375,-0.0144127948554176
-0.753125,-0.01542256842979395
-0.7524999999999999,-0.01542256842979395
-0.751875,-0.01373961247250004
-0.75125,-0.01037370055791221
-0.750625,-0.008354153409159517
-0.75,-0.005661423877489258
-0.749375,-0.004651650303112911
-0.74875,-0.003978467920195346
-0.748125,-0.002632103154360217
-0.7475000000000001,-0.001285738388525087
-0.746875,0.000397217568768825
-0.74625,0.00107039995168639
-0.745625,0.001743582334603954
-0.745,0.001406991143145172
-0.744375,0.001406991143145172
-0.74375,0.001406991143145172
-0.743125,0.002080173526062737
-0.7425,0.003089947100439084
-0.741875,0.003763129483356649
-0.74125,0.004099720674815431
-0.740625,0.004772903057732996
-0.74,0.004772903057732996
-0.739375,0.004436311866274214
-0.73875,0.003426538291897866
-0.738125,0.003426538291897866
-0.7375,0.003426538291897866
-0.7368749999999999,0.003763129483356649
-0.73625,0.003089947100439084
-0.735625,0.002416764717521519
-0.735,0.000397217568768825
-0.734375,-0.004651650303112911
-0.73375,-0.006334606260406822
-0.733125,-0.004651650303112911
-0.7325,-0.002968694345818999
-0.7318750000000001,-0.002295511962901434
-0.73125,-0.001622329579983869
-0.730625,0.002416764717521519
-0.73,0.004772903057732996
-0.729375,0.004099720674815431
-0.72875,0.006455859015026908
-0.728125,0.008475406163779602
-0.7275,0.009821770929614731
-0.726875,0.01083154450399108
-0.72625,0.01217790926982621
-0.725625,0.01318768284420256
-0.725,0.0141974564185789
-0.724375,0.01554382118441403
-0.72375,0.01588041237587282
-0.723125,0.01588041237587282
-0.7225,0.01554382118441403
-0.721875,0.0162170035673316
-0.7212499999999999,0.01689018595024916
-0.720625,0.01789995952462551
-0.72,0.01958291548191942
-0.719375,0.01958291548191942
-0.71875,0.01924632429046064
-0.718125,0.01857314190754308
-0.7175,0.01823655071608429
-0.716875,0.02059268905629577
-0.7162500000000001,0.02328541858796603
-0.715625,0.02530496573671872
-0.715,0.02665133050255385
-0.714375,0.02698792169401263
-0.71375,0.02698792169401263
-0.713125,0.02665133050255385
-0.7125,0.02732451288547141
-0.711875,0.03001724241714167
-0.71125,0.03270997194881194
-0.710625,0.03506611028902341
-0.71,0.03775883982069367
-0.709375,0.04011497816090515
-0.70875,0.04449066364986932
-0.708125,0.04852975794737471
-0.7075,0.05155907867050375
-0.706875,0.05357862581925645
-0.70625,0.05458839939363279
-0.7056249999999999,0.05593476415946792
-0.705,0.05660794654238548
-0.704375,0.05694453773384427
-0.70375,0.05728112892530305
-0.703125,0.05795431130822062
-0.7025,0.05896408488259696
-0.701875,0.05997385845697331
-0.70125,0.06064704083989087
-0.7006250000000001,0.06199340560572601
-0.7,0.06300317918010236
-0.699375,0.06300317918010236
-0.69875,0.06266658798864357
-0.698125,0.06367636156301991
-0.6975,0.06805204705198409
-0.696875,0.06939841181781922
-0.69625,0.06670568228614895
-0.695625,0.06670568228614895
-0.695,0.0677154558605253
-0.694375,0.06737886466906652
-0.69375,0.069735003009278
-0.693125,0.07377409730678339
-0.6925,0.07714000922137121
-0.691875,0.07915955637012391
-0.69125,0.07915955637012391
-0.690625,0.07983273875304146
-0.6899999999999999,0.0811791035188766
-0.689375,0.08218887709325294
-0.68875,0.08622797139075833
-0.688125,0.09060365687972251
-0.6875,0.09363297760285155
-0.686875,0.09632570713452181
-0.68625,0.09733548070889815
-0.685625,0.09834525428327449
-0.6850000000000001,0.09969161904910963
-0.684375,0.1000282102405684
-0.68375,0.09800866309181572
-0.683125,0.09497934236868667
-0.6825,0.09598911594306303
-0.681875,0.09598911594306303
-0.68125,0.09329638641139276
-0.680625,0.09161343045409885
-0.68,0.0926232040284752
-0.679375,0.09531593356014546
-0.67875,0.09800866309181572
-0.678125,0.1000282102405684
-0.6775,0.100701392623486
-0.676875,0.09868184547473328
-0.67625,0.09565252475160424
-0.675625,0.09632570713452181
-0.675,0.09800866309181572
-0.6743749999999999,0.09868184547473328
-0.67375,0.09834525428327449
-0.673125,0.09699888951743937
-0.6725,0.09598911594306303
-0.671875,0.09699888951743937
-0.67125,0.09901843666619206
-0.670625,0.09800866309181572
-0.67,0.09767207190035694
-0.6693750000000001,0.09834525428327449
-0.66875,0.1013745750064035
-0.668125,0.1047404869209914
-0.6675,0.1067600340697441
-0.666875,0.108442990027038
-0.66625,0.1094527636014143
-0.665625,0.1101259459843319
-0.665,0.1111357195587082
-0.664375,0.1121454931330846
-0.66375,0.1121454931330846
-0.663125,0.1124820843245434
-0.6625,0.1118089019416258
-0.661875,0.1094527636014143
-0.66125,0.1064234428782853
-0.660625,0.1077698076441204
-0.66,0.1104625371757907
-0.659375,0.1097893547928731
-0.6587499999999999,0.1064234428782853
-0.658125,0.1054136693039089
-0.6575,0.1077698076441204
-0.656875,0.1101259459843319
-0.65625,0.1104625371757907
-0.655625,0.1097893547928731
-0.655,0.108442990027038
-0.654375,0.1033941221551562
-0.6537500000000001,0.1030575309636974
-0.653125,0.1040673045380738
-0.6525,0.1060868516868265
-0.651875,0.1064234428782853
-0.65125,0.1064234428782853
-0.650625,0.1060868516868265
-0.65,0.1067600340697441
-0.649375,0.1067600340697441
-0.64875,0.1087795812184967
-0.648125,0.1128186755160021
-0.6475,0.1155114050476724
-0.646875,0.1158479962391312
-0.64625,0.1145016314732961
-0.645625,0.1168577698135075
-0.645,0.1198870905366366
-0.644375,0.1182041345793427
-0.64375,0.1158479962391312
-0.6431249999999999,0.1148382226647548
-0.6425,0.1138284490903785
-0.641875,0.1138284490903785
-0.64125,0.1138284490903785
-0.640625,0.1141650402818373
-0.64,0.1151748138562136
-0.639375,0.1148382226647548
-0.63875,0.1138284490903785
-0.6381250000000001,0.1138284490903785
-0.6375,0.1131552667074609
-0.636875,0.1124820843245434
-0.63625,0.1107991283672494
-0.635625,0.1097893547928731
-0.635,0.1091161724099555
-0.634375,0.1077698076441204
-0.63375,0.1074332164526616
-0.633125,0.1074332164526616
-0.6325,0.1077698076441204
-0.631875,0.1070966252612028
-0.63125,0.1064234428782853
-0.630625,0.1067600340697441
-0.63,0.1077698076441204
-0.629375,0.108442990027038
-0.62875,0.1091161724099555
-0.628125,0.1091161724099555
-0.6274999999999999,0.1091161724099555
-0.626875,0.1094527636014143
-0.62625,0.1094527636014143
-0.625625,0.1094527636014143
-0.625,0.1081063988355792
-0.624375,0.1057502604953677
-0.62375,0.1020477573893211
-0.623125,0.09699888951743937
-0.6225000000000001,0.09228661283701642
-0.621875,0.08757433615659346
-0.62125,0.08252546828471173
-0.620625,0.07983273875304146
-0.62,0.07848637398720634
-0.619375,0.07680341802991243
-0.61875,0.07276432373240704
-0.618125,0.06906182062636043
-0.6175,0.06636909109469018
-0.616875,0.06434954394593748
-0.61625,0.06165681441426722
-0.615625,0.0562713553509267
-0.615,0.05088589628758618
-0.614375,0.04651021079862201
-0.61375,0.0411247517352815
-0.613125,0.03506611028902341
-0.6125,0.03069042480005924
-0.6118749999999999,0.0276611040769302
-0.61125,0.02530496573671872
-0.610625,0.02429519216234238
-0.61,0.02429519216234238
-0.609375,0.02429519216234238
-0.60875,0.02463178335380116
-0.608125,0.02463178335380116
-0.6075,0.02463178335380116
-0.6068750000000001,0.02126587143921333
-0.60625,0.01823655071608429
-0.605625,0.01689018595024916
-0.605,0.01689018595024916
-0.604375,0.01689018595024916
-0.60375,0.01318768284420256
-0.603125,0.009148588546697168
-0.6025,0.006455859015026908
-0.601875,0.005109494249191778
-0.60125,0.004436311866274214
-0.600625,0.00107039995168639
-0.6,-0.001622329579983869
-0.599375,-0.004315059111654128
-0.59875,-0.006671197451865605
-0.598125,-0.00734437983478317
-0.5975,-0.009027335792077082
-0.596875,-0.01272983889812369
-0.5962499999999999,-0.01744211557854664
-0.595625,-0.02047143630167568
-0.595,-0.02350075702480472
-0.594375,-0.02653007774793376
-0.59375,-0.0278764425137689
-0.593125,-0.02888621608814524
-0.5925,-0.02922280727960402
-0.591875,-0.03056917204543915
-0.5912500000000001,-0.0315789456198155
-0.590625,-0.03124235442835672
-0.59,-0.03023258085398037
-0.589375,-0.03023258085398037
-0.58875,-0.03056917204543915
-0.588125,-0.03056917204543915
-0.5875,-0.0278764425137689
-0.586875,-0.02552030417355742
-0.58625,-0.02619348655647499
-0.585625,-0.02753985132231011
-0.585,-0.0278764425137689
-0.584375,-0.02821303370522768
-0.58375,-0.02753985132231011
-0.583125,-0.02686666893939255
-0.5825,-0.02753985132231011
-0.581875,-0.02888621608814524
-0.58125,-0.03292531038565063
-0.5806249999999999,-0.03494485753440332
-0.58,-0.03561803991732089
-0.579375,-0.0373009958746148
-0.57875,-0.03864736064044993
-0.578125,-0.03965713421482628
-0.5775,-0.03932054302336749
-0.576875,-0.03932054302336749
-0.57625,-0.03999372540628506
-0.5756250000000001,-0.04033031659774384
-0.575,-0.04134009017212019
-0.574375,-0.0430230461294141
-0.57375,-0.04403281970379045
-0.573125,-0.04537918446962558
-0.5725,-0.04638895804400193
-0.571875,-0.04605236685254314
-0.57125,-0.04369622851233167
-0.570625,-0.04033031659774384
-0.57,-0.03864736064044993
-0.569375,-0.04033031659774384
-0.56875,-0.04033031659774384
-0.568125,-0.0373009958746148
-0.5675,-0.03494485753440332
-0.566875,-0.03393508396002698
-0.56625,-0.03292531038565063
-0.565625,-0.0315789456198155
-0.5649999999999999,-0.03258871919419185
-0.564375,-0.03595463110877967
-0.56375,-0.03797417825753237
-0.563125,-0.03831076944899114
-0.5625,-0.03898395183190871
-0.561875,-0.03898395183190871
-0.56125,-0.03831076944899114
-0.560625,-0.0373009958746148
-0.5600000000000001,-0.03595463110877967
-0.559375,-0.0373009958746148
-0.55875,-0.03797417825753237
-0.558125,-0.03763758706607358
-0.5575,-0.03831076944899114
-0.556875,-0.03898395183190871
-0.55625,-0.03999372540628506
-0.555625,-0.04033031659774384
-0.555,-0.04066690778920262
-0.554375,-0.04134009017212019
-0.55375,-0.04268645493795532
-0.553125,-0.04369622851233167
-0.5525,-0.04436941089524923
-0.551875,-0.04605236685254314
-0.55125,-0.0467255492354607
-0.550625,-0.0430230461294141
-0.55,-0.03797417825753237
-0.5493749999999999,-0.03494485753440332
-0.54875,-0.03292531038565063
-0.548125,-0.03191553681127429
-0.5475,-0.03056917204543915
-0.546875,-0.02955939847106281
-0.54625,-0.02854962489668646
-0.545625,-0.02854962489668646
-0.545,-0.02888621608814524
-0.5443750000000001,-0.02888621608814524
-0.54375,-0.02854962489668646
-0.543125,-0.0278764425137689
-0.5425,-0.0278764425137689
-0.541875,-0.03090576323689793
-0.54125,-0.03393508396002698
-0.540625,-0.03494485753440332
-0.54,-0.03494485753440332
-0.539375,-0.03595463110877967
-0.53875,-0.03662781349169723
-0.538125,-0.03662781349169723
-0.5375,-0.03696440468315602
-0.536875,-0.0373009958746148
-0.53625,-0.03831076944899114
-0.535625,-0.03864736064044993
-0.535,-0.04033031659774384
-0.534375,-0.04134009017212019
-0.5337499999999999,-0.04201327255503776
-0.533125,-0.04234986374649653
-0.5325,-0.0430230461294141
-0.531875,-0.04403281970379045
-0.53125,-0.04537918446962558
-0.530625,-0.04504259327816679
-0.53,-0.04436941089524923
-0.529375,-0.04470600208670801
-0.5287500000000001,-0.04234986374649653
-0.528125,-0.0373009958746148
-0.5275,-0.0335984927685682
-0.526875,-0.03090576323689793
-0.52625,-0.02989598966252159
-0.525625,-0.02888621608814524
-0.525,-0.02854962489668646
-0.524375,-0.02720326013085133
-0.52375,-0.02888621608814524
-0.523125,-0.03191553681127429
-0.5225,-0.03460826634294454
-0.521875,-0.03629122230023845
-0.52125,-0.03696440468315602
-0.520625,-0.03629122230023845
-0.52,-0.03561803991732089
-0.519375,-0.03595463110877967
-0.51875,-0.03662781349169723
-0.5181249999999999,-0.03763758706607358
-0.5175,-0.03831076944899114
-0.516875,-0.03831076944899114
-0.51625,-0.03965713421482628
-0.515625,-0.03999372540628506
-0.515,-0.04167668136357897
-0.514375,-0.04234986374649653
-0.51375,-0.04268645493795532
-0.5131250000000001,-0.04268645493795532
-0.5125,-0.04201327255503776
-0.511875,-0.04033031659774384
-0.51125,-0.03696440468315602
-0.510625,-0.03393508396002698
-0.51,-0.0335984927685682
-0.509375,-0.03662781349169723
-0.50875,-0.03696440468315602
-0.508125,-0.03494485753440332
-0.5075,-0.0373009958746148
-0.506875,-0.03864736064044993
-0.50625,-0.03561803991732089
-0.505625,-0.03258871919419185
-0.505,-0.03056917204543915
-0.504375,-0.02922280727960402
-0.50375,-0.03124235442835672
-0.503125,-0.03494485753440332
-0.5024999999999999,-0.0373009958746148
-0.501875,-0.03831076944899114
-0.50125,-0.03797417825753237
-0.500625,-0.03696440468315602
-0.5,-0.03662781349169723
-0.499375,-0.03662781349169723
-0.49875,-0.03696440468315602
-0.498125,-0.03763758706607358
-0.4975,-0.03763758706607358
-0.496875,-0.03831076944899114
-0.49625,-0.03965713421482628
-0.495625,-0.03965713421482628
-0.495,-0.04066690778920262
-0.494375,-0.04201327255503776
-0.49375,-0.0430230461294141
-0.493125,-0.04335963732087288
-0.4925,-0.04403281970379045
-0.491875,-0.04571577566108436
-0.49125,-0.04706214042691949
-0.490625,-0.0467255492354607
-0.49,-0.04571577566108436
-0.489375,-0.04504259327816679
-0.48875,-0.04234986374649653
-0.488125,-0.03898395183190871
-0.4875,-0.04066690778920262
-0.486875,-0.04033031659774384
-0.48625,-0.03696440468315602
-0.485625,-0.03393508396002698
-0.485,-0.03258871919419185
-0.484375,-0.03494485753440332
-0.48375,-0.03662781349169723
-0.483125,-0.0373009958746148
-0.4825,-0.03831076944899114
-0.481875,-0.03831076944899114
-0.48125,-0.03831076944899114
-0.480625,-0.03763758706607358
-0.48,-0.03763758706607358
-0.479375,-0.03898395183190871
-0.47875,-0.03965713421482628
-0.478125,-0.03965713421482628
-0.4775,-0.03965713421482628
-0.476875,-0.04033031659774384
-0.47625,-0.04134009017212019
-0.475625,-0.04201327255503776
-0.475,-0.0430230461294141
-0.474375,-0.04335963732087288
-0.47375,-0.04335963732087288
-0.473125,-0.04369622851233167
-0.4725,-0.04335963732087288
-0.471875,-0.04234986374649653
-0.47125,-0.03864736064044993
-0.470625,-0.03528144872586211
-0.47,-0.03460826634294454
-0.469375,-0.0373009958746148
-0.46875,-0.03662781349169723
-0.468125,-0.03494485753440332
-0.4675,-0.03460826634294454
-0.466875,-0.03326190157710941
-0.46625,-0.0315789456198155
-0.465625,-0.03090576323689793
-0.465,-0.03023258085398037
-0.464375,-0.03292531038565063
-0.46375,-0.03629122230023845
-0.463125,-0.0373009958746148
-0.4625,-0.03494485753440332
-0.461875,-0.03393508396002698
-0.46125,-0.03494485753440332
-0.460625,-0.03528144872586211
-0.46,-0.03595463110877967
-0.459375,-0.03696440468315602
-0.45875,-0.03696440468315602
-0.458125,-0.03629122230023845
-0.4575,-0.03595463110877967
-0.456875,-0.03662781349169723
-0.45625,-0.03763758706607358
-0.455625,-0.03864736064044993
-0.455,-0.04033031659774384
-0.454375,-0.04167668136357897
-0.45375,-0.04234986374649653
-0.453125,-0.04335963732087288
-0.4525,-0.04436941089524923
-0.451875,-0.04571577566108436
-0.45125,-0.04605236685254314
-0.450625,-0.04167668136357897
-0.45,-0.03696440468315602
-0.449375,-0.03427167515148576
-0.44875,-0.03225212800273306
-0.448125,-0.0315789456198155
-0.4475,-0.03090576323689793
-0.446875,-0.03090576323689793
-0.44625,-0.02989598966252159
-0.445625,-0.02955939847106281
-0.445,-0.02922280727960402
-0.444375,-0.02854962489668646
-0.44375,-0.03056917204543915
-0.443125,-0.03393508396002698
-0.4425,-0.03662781349169723
-0.441875,-0.03864736064044993
-0.44125,-0.03864736064044993
-0.440625,-0.03797417825753237
-0.44,-0.03763758706607358
-0.439375,-0.03932054302336749
-0.43875,-0.04100349898066141
-0.438125,-0.04167668136357897
-0.4375,-0.04167668136357897
-0.436875,-0.04201327255503776
-0.43625,-0.0430230461294141
-0.435625,-0.04268645493795532
-0.435,-0.04403281970379045
-0.434375,-0.04537918446962558
-0.43375,-0.04605236685254314
-0.433125,-0.04706214042691949
-0.4325,-0.04706214042691949
-0.431875,-0.04807191400129584
-0.43125,-0.0487450963842134
-0.430625,-0.04470600208670801
-0.43,-0.04234986374649653
-0.429375,-0.04234986374649653
-0.42875,-0.03965713421482628
-0.428125,-0.03696440468315602
-0.4275,-0.03427167515148576
-0.426875,-0.03225212800273306
-0.42625,-0.03056917204543915
-0.425625,-0.02955939847106281
-0.425,-0.02821303370522768
-0.424375,-0.02821303370522768
-0.42375,-0.03090576323689793
-0.423125,-0.03393508396002698
-0.4225,-0.03595463110877967
-0.421875,-0.03696440468315602
-0.42125,-0.03763758706607358
-0.420625,-0.03763758706607358
-0.42,-0.03831076944899114
-0.419375,-0.03965713421482628
-0.41875,-0.03999372540628506
-0.418125,-0.04033031659774384
-0.4175,-0.03999372540628506
-0.416875,-0.04033031659774384
-0.41625,-0.04066690778920262
-0.415625,-0.04033031659774384
-0.415,-0.04201327255503776
-0.414375,-0.04335963732087288
-0.41375,-0.04403281970379045
-0.413125,-0.04436941089524923
-0.4125,-0.04436941089524923
-0.411875,-0.04571577566108436
-0.41125,-0.04605236685254314
-0.410625,-0.04436941089524923
-0.41,-0.04268645493795532
-0.409375,-0.04167668136357897
-0.40875,-0.03898395183190871
-0.408125,-0.03528144872586211
-0.4075,-0.03292531038565063
-0.406875,-0.03326190157710941
-0.40625,-0.03528144872586211
-0.405625,-0.03292531038565063
-0.405,-0.03124235442835672
-0.404375,-0.03292531038565063
-0.40375,-0.03494485753440332
-0.403125,-0.03595463110877967
-0.4025,-0.03763758706607358
-0.401875,-0.03831076944899114
-0.40125,-0.03831076944899114
-0.400625,-0.0373009958746148
-0.4,-0.03696440468315602
-0.399375,-0.03763758706607358
-0.39875,-0.03763758706607358
-0.398125,-0.03797417825753237
-0.3975,-0.03864736064044993
-0.396875,-0.03965713421482628
-0.39625,-0.04100349898066141
-0.395625,-0.04167668136357897
-0.395,-0.04234986374649653
-0.394375,-0.04268645493795532
-0.39375,-0.04335963732087288
-0.393125,-0.04403281970379045
-0.3925,-0.04369622851233167
-0.391875,-0.04403281970379045
-0.39125,-0.04470600208670801
-0.390625,-0.04470600208670801
-0.39,-0.04234986374649653
-0.389375,-0.03797417825753237
-0.38875,-0.03528144872586211
-0.388125,-0.0335984927685682
-0.3875,-0.03258871919419185
-0.386875,-0.03191553681127429
-0.38625,-0.0315789456198155
-0.385625,-0.03124235442835672
-0.385,-0.03090576323689793
-0.384375,-0.03056917204543915
-0.38375,-0.02989598966252159
-0.383125,-0.02955939847106281
-0.3825,-0.03258871919419185
-0.381875,-0.03494485753440332
-0.38125,-0.03561803991732089
-0.380625,-0.03494485753440332
-0.38,-0.03494485753440332
-0.379375,-0.03528144872586211
-0.37875,-0.03460826634294454
-0.378125,-0.03427167515148576
-0.3775,-0.03393508396002698
-0.376875,-0.03494485753440332
-0.37625,-0.03629122230023845
-0.375625,-0.03797417825753237
-0.375,-0.04033031659774384
-0.374375,-0.04100349898066141
-0.37375,-0.04100349898066141
-0.373125,-0.04134009017212019
-0.3725,-0.04100349898066141
-0.371875,-0.03932054302336749
-0.37125,-0.03629122230023845
-0.370625,-0.03292531038565063
-0.37,-0.03326190157710941
-0.369375,-0.03561803991732089
-0.36875,-0.03460826634294454
-0.368125,-0.03225212800273306
-0.3675,-0.03023258085398037
-0.366875,-0.02821303370522768
-0.36625,-0.02619348655647499
-0.365625,-0.02552030417355742
-0.365,-0.02720326013085133
-0.364375,-0.03023258085398037
-0.36375,-0.03292531038565063
-0.363125,-0.03460826634294454
-0.3625,-0.03629122230023845
-0.361875,-0.03696440468315602
-0.36125,-0.03696440468315602
-0.360625,-0.03561803991732089
-0.36,-0.03494485753440332
-0.359375,-0.03528144872586211
-0.35875,-0.03460826634294454
-0.358125,-0.03393508396002698
-0.3575,-0.0335984927685682
-0.356875,-0.03460826634294454
-0.35625,-0.03629122230023845
-0.355625,-0.03797417825753237
-0.355,-0.03965713421482628
-0.354375,-0.04100349898066141
-0.35375,-0.04234986374649653
-0.353125,-0.0430230461294141
-0.3525,-0.0430230461294141
-0.351875,-0.04369622851233167
-0.35125,-0.04403281970379045
-0.350625,-0.0430230461294141
-0.35,-0.04268645493795532
-0.349375,-0.04234986374649653
-0.34875,-0.03965713421482628
-0.348125,-0.03629122230023845
-0.3475,-0.03427167515148576
-0.346875,-0.03258871919419185
-0.34625,-0.03023258085398037
-0.345625,-0.02821303370522768
-0.345,-0.02821303370522768
-0.344375,-0.0315789456198155
-0.34375,-0.03090576323689793
-0.343125,-0.02922280727960402
-0.3425,-0.03090576323689793
-0.341875,-0.03258871919419185
-0.34125,-0.03326190157710941
-0.340625,-0.0335984927685682
-0.34,-0.03460826634294454
-0.339375,-0.03595463110877967
-0.33875,-0.03629122230023845
-0.338125,-0.03662781349169723
-0.3375,-0.0373009958746148
-0.336875,-0.03797417825753237
-0.33625,-0.03864736064044993
-0.335625,-0.03864736064044993
-0.335,-0.03898395183190871
-0.334375,-0.03965713421482628
-0.33375,-0.04033031659774384
-0.333125,-0.04033031659774384
-0.3325,-0.03999372540628506
-0.331875,-0.03999372540628506
-0.33125,-0.03965713421482628
-0.330625,-0.03797417825753237
-0.33,-0.0373009958746148
-0.329375,-0.03662781349169723
-0.32875,-0.03326190157710941
-0.328125,-0.03056917204543915
-0.3275,-0.0315789456198155
-0.326875,-0.03124235442835672
-0.32625,-0.02854962489668646
-0.325625,-0.02653007774793376
-0.325,-0.0258568953650162
-0.324375,-0.02552030417355742
-0.32375,-0.02753985132231011
-0.323125,-0.03056917204543915
-0.3225,-0.03326190157710941
-0.321875,-0.03460826634294454
-0.32125,-0.03460826634294454
-0.320625,-0.03427167515148576
-0.32,-0.03427167515148576
-0.319375,-0.03561803991732089
-0.31875,-0.03595463110877967
-0.318125,-0.03561803991732089
-0.3175,-0.03561803991732089
-0.316875,-0.03662781349169723
-0.31625,-0.03696440468315602
-0.315625,-0.03797417825753237
-0.315,-0.03965713421482628
-0.314375,-0.04100349898066141
-0.31375,-0.04167668136357897
-0.313125,-0.04201327255503776
-0.3125,-0.04167668136357897
-0.311875,-0.03864736064044993
-0.31125,-0.03528144872586211
-0.310625,-0.03225212800273306
-0.31,-0.03191553681127429
-0.309375,-0.03528144872586211
-0.30875,-0.03528144872586211
-0.308125,-0.03326190157710941
-0.3075,-0.03191553681127429
-0.306875,-0.03056917204543915
-0.30625,-0.02888621608814524
-0.305625,-0.0278764425137689
-0.305,-0.02753985132231011
-0.304375,-0.02686666893939255
-0.30375,-0.02686666893939255
-0.303125,-0.02720326013085133
-0.3025,-0.03090576323689793
-0.301875,-0.03427167515148576
-0.30125,-0.03494485753440332
-0.300625,-0.03460826634294454
-0.3,-0.03460826634294454
-0.299375,-0.03494485753440332
-0.29875,-0.03528144872586211
-0.298125,-0.03528144872586211
-0.2975,-0.03561803991732089
-0.296875,-0.03662781349169723
-0.29625,-0.03696440468315602
-0.295625,-0.03763758706607358
-0.295,-0.03898395183190871
-0.294375,-0.03932054302336749
-0.29375,-0.03932054302336749
-0.293125,-0.03932054302336749
-0.2925,-0.03965713421482628
-0.291875,-0.04134009017212019
-0.29125,-0.04134009017212019
-0.290625,-0.03763758706607358
-0.29,-0.03393508396002698
-0.289375,-0.03460826634294454
-0.28875,-0.03460826634294454
-0.288125,-0.03258871919419185
-0.2875,-0.03023258085398037
-0.286875,-0.02821303370522768
-0.28625,-0.02720326013085133
-0.285625,-0.02653007774793376
-0.285,-0.02552030417355742
-0.284375,-0.02518371298209864
-0.28375,-0.0278764425137689
-0.283125,-0.03225212800273306
-0.2825,-0.03494485753440332
-0.281875,-0.03662781349169723
-0.28125,-0.0373009958746148
-0.280625,-0.03662781349169723
-0.28,-0.03696440468315602
-0.279375,-0.03797417825753237
-0.27875,-0.03797417825753237
-0.278125,-0.03797417825753237
-0.2775,-0.0373009958746148
-0.276875,-0.03797417825753237
-0.27625,-0.03932054302336749
-0.275625,-0.04033031659774384
-0.275,-0.04167668136357897
-0.274375,-0.0430230461294141
-0.27375,-0.04335963732087288
-0.273125,-0.04369622851233167
-0.2725,-0.04436941089524923
-0.271875,-0.04537918446962558
-0.27125,-0.04537918446962558
-0.270625,-0.04066690778920262
-0.27,-0.03763758706607358
-0.269375,-0.03864736064044993
-0.26875,-0.0373009958746148
-0.268125,-0.0335984927685682
-0.2675,-0.03090576323689793
-0.266875,-0.02854962489668646
-0.26625,-0.02653007774793376
-0.265625,-0.02484712179063985
-0.265,-0.02282757464188716
-0.264375,-0.02282757464188716
-0.26375,-0.02619348655647499
-0.263125,-0.02989598966252159
-0.2625,-0.03326190157710941
-0.261875,-0.03427167515148576
-0.26125,-0.03460826634294454
-0.260625,-0.03326190157710941
-0.26,-0.0335984927685682
-0.259375,-0.03494485753440332
-0.25875,-0.03460826634294454
-0.258125,-0.03494485753440332
-0.2575,-0.03528144872586211
-0.256875,-0.03662781349169723
-0.25625,-0.03763758706607358
-0.255625,-0.03831076944899114
-0.255,-0.03999372540628506
-0.254375,-0.04066690778920262
-0.25375,-0.04100349898066141
-0.253125,-0.04100349898066141
-0.2525,-0.04167668136357897
-0.251875,-0.04268645493795532
-0.25125,-0.04234986374649653
-0.250625,-0.04134009017212019
-0.25,-0.04100349898066141
-0.249375,-0.03965713421482628
-0.24875,-0.0373009958746148
-0.248125,-0.0335984927685682
-0.2475,-0.0315789456198155
-0.246875,-0.03023258085398037
-0.24625,-0.02922280727960402
-0.245625,-0.02888621608814524
-0.245,-0.02753985132231011
-0.244375,-0.02653007774793376
-0.24375,-0.0278764425137689
-0.243125,-0.03090576323689793
-0.2425,-0.03326190157710941
-0.241875,-0.03393508396002698
-0.24125,-0.03393508396002698
-0.240625,-0.03393508396002698
-0.24,-0.03494485753440332
-0.239375,-0.03561803991732089
-0.23875,-0.03561803991732089
-0.238125,-0.03528144872586211
-0.2375,-0.03427167515148576
-0.236875,-0.03528144872586211
-0.23625,-0.03595463110877967
-0.235625,-0.03696440468315602
-0.235,-0.03831076944899114
-0.234375,-0.03898395183190871
-0.23375,-0.03932054302336749
-0.233125,-0.03965713421482628
-0.2325,-0.03999372540628506
-0.231875,-0.03831076944899114
-0.23125,-0.03460826634294454
-0.230625,-0.03090576323689793
-0.23,-0.02989598966252159
-0.229375,-0.03191553681127429
-0.22875,-0.03124235442835672
-0.228125,-0.02888621608814524
-0.2275,-0.02821303370522768
-0.226875,-0.02686666893939255
-0.22625,-0.0258568953650162
-0.225625,-0.02518371298209864
-0.225,-0.02484712179063985
-0.224375,-0.02417393940772229
-0.22375,-0.02653007774793376
-0.223125,-0.02955939847106281
-0.2225,-0.03191553681127429
-0.221875,-0.03393508396002698
-0.22125,-0.03427167515148576
-0.220625,-0.0335984927685682
-0.22,-0.03427167515148576
-0.219375,-0.03460826634294454
-0.21875,-0.03393508396002698
-0.218125,-0.03326190157710941
-0.2175,-0.03326190157710941
-0.216875,-0.03427167515148576
-0.21625,-0.03561803991732089
-0.215625,-0.03629122230023845
-0.215,-0.03763758706607358
-0.214375,-0.03898395183190871
-0.21375,-0.04033031659774384
-0.213125,-0.04066690778920262
-0.2125,-0.04134009017212019
-0.211875,-0.04201327255503776
-0.21125,-0.04100349898066141
-0.210625,-0.03595463110877967
-0.21,-0.03124235442835672
-0.209375,-0.0278764425137689
-0.20875,-0.0258568953650162
-0.208125,-0.02518371298209864
-0.2075,-0.02484712179063985
-0.206875,-0.02484712179063985
-0.20625,-0.02383734821626351
-0.205625,-0.02350075702480472
-0.205,-0.02451053059918107
-0.204375,-0.02821303370522768
-0.20375,-0.03056917204543915
-0.203125,-0.03326190157710941
-0.2025,-0.03561803991732089
-0.201875,-0.03662781349169723
-0.20125,-0.03629122230023845
-0.200625,-0.03528144872586211
-0.2,-0.03494485753440332
-0.199375,-0.03460826634294454
-0.19875,-0.0335984927685682
-0.198125,-0.03326190157710941
-0.1975,-0.0335984927685682
-0.196875,-0.03494485753440332
-0.19625,-0.03595463110877967
-0.195625,-0.0373009958746148
-0.195,-0.03831076944899114
-0.194375,-0.03898395183190871
-0.19375,-0.04033031659774384
-0.193125,-0.04066690778920262
-0.1925,-0.04100349898066141
-0.191875,-0.04234986374649653
-0.19125,-0.04335963732087288
-0.190625,-0.0430230461294141
-0.19,-0.04167668136357897
-0.189375,-0.03999372540628506
-0.18875,-0.03662781349169723
-0.188125,-0.03191553681127429
-0.1875,-0.02854962489668646
-0.186875,-0.02619348655647499
-0.18625,-0.02552030417355742
-0.185625,-0.02484712179063985
-0.185,-0.02383734821626351
-0.184375,-0.02451053059918107
-0.18375,-0.02619348655647499
-0.183125,-0.03056917204543915
-0.1825,-0.0335984927685682
-0.181875,-0.03494485753440332
-0.18125,-0.03460826634294454
-0.180625,-0.03258871919419185
-0.18,-0.03258871919419185
-0.179375,-0.03326190157710941
-0.17875,-0.03393508396002698
-0.178125,-0.03427167515148576
-0.1775,-0.03494485753440332
-0.176875,-0.03561803991732089
-0.17625,-0.03595463110877967
-0.175625,-0.03898395183190871
-0.175,-0.04403281970379045
-0.174375,-0.04436941089524923
-0.17375,-0.04403281970379045
-0.173125,-0.04335963732087288
-0.1725,-0.0430230461294141
-0.171875,-0.04167668136357897
-0.17125,-0.03797417825753237
-0.170625,-0.0373009958746148
-0.17,-0.03898395183190871
-0.169375,-0.03999372540628506
-0.16875,-0.0373009958746148
-0.168125,-0.0335984927685682
-0.1675,-0.0315789456198155
-0.166875,-0.02989598966252159
-0.16625,-0.02821303370522768
-0.165625,-0.0278764425137689
-0.165,-0.02854962489668646
-0.164375,-0.03225212800273306
-0.16375,-0.03561803991732089
-0.163125,-0.03831076944899114
-0.1625,-0.03965713421482628
-0.161875,-0.03965713421482628
-0.16125,-0.03932054302336749
-0.160625,-0.03898395183190871
-0.16,-0.03864736064044993
-0.159375,-0.03898395183190871
-0.15875,-0.03797417825753237
-0.158125,-0.03696440468315602
-0.1575,-0.0373009958746148
-0.156875,-0.03932054302336749
-0.15625,-0.04033031659774384
-0.155625,-0.04100349898066141
-0.155,-0.04167668136357897
-0.154375,-0.04234986374649653
-0.15375,-0.0430230461294141
-0.153125,-0.0430230461294141
-0.1525,-0.04335963732087288
-0.151875,-0.04436941089524923
-0.15125,-0.04369622851233167
-0.150625,-0.04134009017212019
-0.15,-0.04033031659774384
-0.149375,-0.03999372540628506
-0.14875,-0.03662781349169723
-0.148125,-0.03258871919419185
-0.1475,-0.03023258085398037
-0.146875,-0.02854962489668646
-0.14625,-0.02720326013085133
-0.145625,-0.0258568953650162
-0.145,-0.0258568953650162
-0.144375,-0.02888621608814524
-0.14375,-0.03124235442835672
-0.143125,-0.03292531038565063
-0.1425,-0.03460826634294454
-0.141875,-0.03427167515148576
-0.14125,-0.0335984927685682
-0.140625,-0.03258871919419185
-0.14,-0.03225212800273306
-0.139375,-0.03258871919419185
-0.13875,-0.03191553681127429
-0.138125,-0.03225212800273306
-0.1375,-0.03258871919419185
-0.136875,-0.0335984927685682
-0.13625,-0.03427167515148576
-0.135625,-0.03595463110877967
-0.135,-0.03797417825753237
-0.134375,-0.03831076944899114
-0.13375,-0.03898395183190871
-0.133125,-0.03932054302336749
-0.1325,-0.04033031659774384
-0.131875,-0.04167668136357897
-0.13125,-0.04134009017212019
-0.130625,-0.03831076944899114
-0.13,-0.03528144872586211
-0.129375,-0.03629122230023845
-0.12875,-0.03528144872586211
-0.128125,-0.03191553681127429
-0.1275,-0.03258871919419185
-0.126875,-0.0315789456198155
-0.12625,-0.0278764425137689
-0.125625,-0.02484712179063985
-0.125,-0.02383734821626351
-0.124375,-0.02720326013085133
-0.12375,-0.02989598966252159
-0.123125,-0.03191553681127429
-0.1225,-0.03258871919419185
-0.121875,-0.03292531038565063
-0.12125,-0.03258871919419185
-0.120625,-0.03225212800273306
-0.12,-0.03258871919419185
-0.119375,-0.0335984927685682
-0.11875,-0.0335984927685682
-0.118125,-0.0335984927685682
-0.1175,-0.0335984927685682
-0.116875,-0.03460826634294454
-0.11625,-0.03494485753440332
-0.115625,-0.03561803991732089
-0.115,-0.03696440468315602
-0.114375,-0.0373009958746148
-0.11375,-0.0373009958746148
-0.113125,-0.0373009958746148
-0.1125,-0.03763758706607358
-0.111875,-0.03662781349169723
-0.11125,-0.03326190157710941
-0.110625,-0.03023258085398037
-0.11,-0.02686666893939255
-0.109375,-0.02282757464188716
-0.10875,-0.01979825391875812
-0.108125,-0.01676893319562908
-0.1075,-0.01407620366395882
-0.106875,-0.01172006532374734
-0.10625,-0.009700518174994647
-0.105625,-0.004988241494571694
-0.105,-0.0002759648141487398
-0.104375,0.002080173526062737
-0.10375,0.002753355908980301
-0.103125,0.003426538291897866
-0.1025,0.004436311866274214
-0.101875,0.005446085440650561
-0.10125,0.00679245020648569
-0.100625,0.007802223780862037
-0.1,0.008138814972320821
-0.099375,0.008475406163779602
-0.09875,0.009148588546697168
-0.098125,0.009148588546697168
-0.0975,0.009148588546697168
-0.096875,0.0104949533125323
-0.09625,0.01352427403566134
-0.095625,0.01588041237587282
-0.095,0.01689018595024916
-0.094375,0.01689018595024916
-0.09375,0.01722677714170794
-0.093125,0.01857314190754308
-0.0925,0.0219390538221309
-0.091875,0.02463178335380116
-0.09125,0.0276611040769302
-0.090625,0.0333831543317295
-0.09,0.03809543101215245
-0.089375,0.0411247517352815
-0.08875,0.04280770769257541
-0.088125,0.04381748126695176
-0.08749999999999999,0.04415407245841053
-0.08687499999999999,0.04415407245841053
-0.08624999999999999,0.04583702841570445
